Data from 2937814_Reflection_3.txt Node
Date: Wed Jul 15 17:39:19 EDT 2015
User: robert
Spectrometer: USB4E03001
Autoset integration time: false
Trigger mode: 4
Integration Time (sec): 1.000000E-1
Scans to average: 10
Electric dark correction enabled: true
Nonlinearity correction enabled: false
Boxcar width: 5
Stray light correction enabled: false
XAxis mode: Wavelengths
Stop averaging: false
Number of Pixels in Spectrum: 3648
>>>>>Begin Spectral Data<<<<<
177.566	88.23
177.785	70.07
178.005	84
178.225	83.7
178.445	225.99
178.665	60.36
178.885	17.22
179.105	25.84
179.324	-120.1
179.544	234.08
179.764	-881.97
179.984	64.61
180.204	69.95
180.423	84.16
180.643	86.31
180.863	89.64
181.083	79.97
181.302	62.3
181.522	70.47
181.742	70.64
181.961	88.26
182.181	96.04
182.401	148.06
182.621	171.09
182.84	134.01
183.06	140.02
183.279	193.93
183.499	141.2
183.719	158.31
183.938	141.1
184.158	141.46
184.377	121.86
184.597	115.84
184.816	69.81
185.036	75.57
185.256	119.23
185.475	112.01
185.695	114.44
185.914	137.5
186.134	128.13
186.353	123.48
186.572	100.37
186.792	116.07
187.011	105.26
187.231	109.28
187.45	106.13
187.67	83.89
187.889	89.24
188.108	72.41
188.328	100.98
188.547	125.98
188.766	99.75
188.986	127.5
189.205	99.03
189.424	73.9
189.644	164.17
189.863	112.76
190.082	148.62
190.302	204.46
190.521	226.22
190.74	183.86
190.959	138.44
191.178	1259.04
191.398	-159.75
191.617	-1923.37
191.836	-214.87
192.055	-275.37
192.274	-186.86
192.494	-150.28
192.713	-593.94
192.932	-980
193.151	-173.59
193.37	-216.12
193.589	-29281.48
193.808	1169.33
194.027	-169.32
194.246	-160.89
194.465	-1688.09
194.685	617.92
194.904	-280.55
195.123	-4.02
195.342	103.33
195.561	-164.92
195.78	-128.83
195.999	-172.45
196.218	-172.45
196.436	-19.92
196.655	-27.1
196.874	-65.84
197.093	-27.67
197.312	-3.01
197.531	10.96
197.75	19.11
197.969	27.48
198.188	35.35
198.407	52.02
198.625	64.42
198.844	82.72
199.063	180.66
199.282	168.55
199.501	213.16
199.719	657.54
199.938	-366.38
200.157	-25.6
200.376	88.89
200.594	182.16
200.813	140.23
201.032	71.7
201.251	353.43
201.469	-910.67
201.688	-2440.59
201.907	404.75
202.125	422.11
202.344	3598.7
202.563	-59.79
202.781	-33.27
203	-12.59
203.218	-11.08
203.437	-22.78
203.656	356.39
203.874	-557.11
204.093	-107.33
204.311	-247.42
204.53	-10.47
204.748	-27.73
204.967	103.88
205.185	208.55
205.404	263.87
205.622	174.16
205.841	195.2
206.059	501.29
206.278	531.92
206.496	649.73
206.715	478.49
206.933	291.39
207.151	237.26
207.37	338.87
207.588	117.92
207.806	86.67
208.025	202.63
208.243	124.86
208.461	219
208.68	123.97
208.898	171.04
209.116	6.45
209.335	2.76
209.553	-2563.64
209.771	-24.23
209.989	167.53
210.208	303.63
210.426	209.21
210.644	139.31
210.862	201.2
211.081	114.8
211.299	139.44
211.517	110.65
211.735	2478.45
211.953	1012.98
212.171	3619.38
212.39	238.32
212.608	197.51
212.826	137.05
213.044	149.07
213.262	106.8
213.48	99.27
213.698	99.47
213.916	117.14
214.134	53.37
214.352	31.01
214.57	12.05
214.788	-19.58
215.006	59.19
215.224	-71.2
215.442	163.8
215.66	99.67
215.878	22.44
216.096	-20.96
216.314	47.44
216.532	201.57
216.75	-1108.52
216.968	299.45
217.185	176.02
217.403	83.94
217.621	100.99
217.839	124.14
218.057	178.22
218.275	103.51
218.492	87.97
218.71	72.81
218.928	58.36
219.146	55.25
219.363	58.51
219.581	55.25
219.799	27.27
220.017	-53.98
220.234	7.93
220.452	0.41
220.67	73.27
220.887	73.15
221.105	47.8
221.323	21.87
221.54	40.77
221.758	48.43
221.976	63.78
222.193	69.99
222.411	84.47
222.629	83.42
222.846	74.07
223.064	69.56
223.281	67.23
223.499	86.02
223.716	94.59
223.934	79.96
224.151	100.83
224.369	92.2
224.586	91.45
224.804	76.37
225.021	45.73
225.239	52.48
225.456	37.37
225.674	45
225.891	30.29
226.108	32.49
226.326	39.02
226.543	27.48
226.76	23.27
226.978	29.68
227.195	23.7
227.413	28.38
227.63	25.67
227.847	16.09
228.064	17.5
228.282	20.13
228.499	19.06
228.716	16.21
228.934	15.62
229.151	16.78
229.368	16.75
229.585	16.03
229.802	12.5
230.02	12.09
230.237	15.36
230.454	8.71
230.671	6.28
230.888	1.64
231.105	0.62
231.323	2.35
231.54	-4.88
231.757	-9.45
231.974	-3.48
232.191	1.95
232.408	-5.53
232.625	-7.11
232.842	6.36
233.059	-0.98
233.276	5.57
233.493	-1.15
233.71	-9.32
233.927	-6.82
234.144	-7.55
234.361	-16.87
234.578	-5.47
234.795	1.17
235.012	0.13
235.229	-0.11
235.446	6.54
235.663	9.68
235.879	15.9
236.096	19.3
236.313	18.69
236.53	21.56
236.747	21.59
236.964	20.73
237.181	21.81
237.397	30.26
237.614	32.62
237.831	37.41
238.048	34.33
238.264	34.55
238.481	37.54
238.698	34.32
238.915	29.36
239.131	30.01
239.348	21.67
239.565	19.77
239.781	10.62
239.998	9.76
240.215	3.42
240.431	-1.59
240.648	4.71
240.865	-1.06
241.081	2.43
241.298	2.99
241.514	5.21
241.731	9.67
241.947	9.7
242.164	11.87
242.38	7.16
242.597	7.39
242.814	9.83
243.03	8.58
243.246	11.09
243.463	10.08
243.679	11.24
243.896	12.2
244.112	9.77
244.329	8.88
244.545	6.74
244.762	9.1
244.978	12.97
245.194	12.13
245.411	11.54
245.627	12.24
245.843	11.18
246.06	12.14
246.276	10.25
246.492	9.13
246.709	9.19
246.925	9.51
247.141	9.14
247.357	6.97
247.574	6.52
247.79	4.88
248.006	3.93
248.222	3.95
248.439	2.52
248.655	0.92
248.871	1.56
249.087	0.22
249.303	0.6
249.519	1.12
249.736	0.89
249.952	0.61
250.168	2.39
250.384	1.11
250.6	2.39
250.816	3.47
251.032	6.44
251.248	4.92
251.464	5.96
251.68	2.75
251.896	0.08
252.112	-0.49
252.328	-0.01
252.544	-0.51
252.76	1.63
252.976	0.41
253.192	0.63
253.408	-0.82
253.624	1.17
253.84	1.29
254.056	4.06
254.272	8.71
254.487	8.33
254.703	10.56
254.919	11.2
255.135	10.57
255.351	11.77
255.567	9.43
255.782	10.17
255.998	6.7
256.214	7.67
256.43	5.32
256.646	3.56
256.861	9.54
257.077	6.98
257.293	6.27
257.508	6.76
257.724	6.64
257.94	6.9
258.155	5.05
258.371	4.52
258.587	5.32
258.802	6.76
259.018	6.51
259.234	5.31
259.449	5.76
259.665	5.76
259.88	6.32
260.096	6.83
260.312	7.03
260.527	8.19
260.743	10.18
260.958	9.46
261.174	7.6
261.389	6.93
261.605	7.77
261.82	7.82
262.036	8.24
262.251	8.25
262.466	7.56
262.682	8.38
262.897	7.32
263.113	4.1
263.328	4.49
263.543	8.29
263.759	8
263.974	6.78
264.189	5.39
264.405	5.93
264.62	5.18
264.835	5.06
265.051	3.47
265.266	6.31
265.481	8.29
265.696	11.85
265.912	9.76
266.127	11.64
266.342	10.7
266.557	12.05
266.773	11.22
266.988	11.74
267.203	10.6
267.418	11.86
267.633	9.76
267.848	9.37
268.064	8.34
268.279	9.01
268.494	8.88
268.709	8.62
268.924	7.3
269.139	7.69
269.354	7.15
269.569	6.91
269.784	6.73
269.999	6.75
270.214	4.43
270.429	3.51
270.644	4.47
270.859	3.24
271.074	3.54
271.289	4.44
271.504	4.45
271.719	3.61
271.934	5.23
272.149	5.12
272.363	5.78
272.578	6.72
272.793	6.35
273.008	5.73
273.223	6.38
273.438	6.73
273.653	6.35
273.867	5.38
274.082	6.68
274.297	5.77
274.512	5.46
274.726	5.33
274.941	5.24
275.156	7.15
275.371	8
275.585	7.71
275.8	8.08
276.015	8.34
276.229	7.98
276.444	7.26
276.659	6.73
276.873	7.12
277.088	8.37
277.302	9.84
277.517	7.7
277.732	6.49
277.946	5.19
278.161	5.09
278.375	5.25
278.59	7.4
278.804	7.43
279.019	7.9
279.233	8
279.448	4.45
279.662	4.91
279.877	5.58
280.091	5.81
280.306	7.64
280.52	6.34
280.735	5.26
280.949	3.96
281.163	4
281.378	4.73
281.592	2.94
281.806	4.03
282.021	2.29
282.235	1.67
282.449	3.31
282.664	4.36
282.878	4.91
283.092	5.8
283.307	7.42
283.521	7.02
283.735	7.65
283.949	7.67
284.164	8.79
284.378	9.04
284.592	10.39
284.806	9.36
285.02	7.25
285.234	7.22
285.449	6.66
285.663	6.29
285.877	7.03
286.091	6.31
286.305	6.27
286.519	5.8
286.733	6.15
286.947	5.38
287.161	5.84
287.375	6.64
287.589	6.77
287.803	6.08
288.017	6.35
288.231	4.94
288.445	5.28
288.659	5.81
288.873	5.79
289.087	5.42
289.301	4.65
289.515	5.13
289.729	5.5
289.943	6.34
290.157	8.6
290.371	8.25
290.584	9.22
290.798	10.32
291.012	11.07
291.226	10.93
291.44	11
291.654	12.52
291.867	11.19
292.081	11.75
292.295	10.71
292.509	10.52
292.722	10.73
292.936	10.47
293.15	10.34
293.364	10.17
293.577	10.55
293.791	10.26
294.005	9.41
294.218	9.29
294.432	8.07
294.645	8.28
294.859	8.63
295.073	8.36
295.286	9.28
295.5	7.64
295.713	8.85
295.927	10.26
296.14	10.91
296.354	11.94
296.568	11.79
296.781	12.07
296.994	12.11
297.208	12.8
297.421	11.91
297.635	11.35
297.848	12.34
298.062	11.3
298.275	11.15
298.489	11.3
298.702	9.75
298.915	10.23
299.129	11.93
299.342	11.62
299.555	10.86
299.769	12.36
299.982	12.15
300.195	10.95
300.409	13.05
300.622	10.69
300.835	10.71
301.048	11.49
301.262	11.65
301.475	11.34
301.688	11.5
301.901	11.29
302.115	11.31
302.328	11.79
302.541	12.32
302.754	10.96
302.967	11.88
303.18	11.63
303.393	12.91
303.607	14.31
303.82	12.55
304.033	14.73
304.246	15.47
304.459	16.26
304.672	15.24
304.885	16.42
305.098	16.81
305.311	16.71
305.524	17.13
305.737	15.71
305.95	14.85
306.163	16.12
306.376	14.63
306.589	14.96
306.802	12.05
307.015	13.94
307.228	13.46
307.44	14.32
307.653	16.49
307.866	15.64
308.079	16.1
308.292	16.32
308.505	16.59
308.718	17.78
308.93	16.1
309.143	17.74
309.356	17.67
309.569	17.66
309.781	16.97
309.994	14.48
310.207	14.74
310.42	15.47
310.632	15.56
310.845	15.34
311.058	15.2
311.27	15.53
311.483	15.73
311.696	16.49
311.908	17.29
312.121	17.96
312.333	20.04
312.546	19.2
312.759	19.69
312.971	19.21
313.184	18.67
313.396	17.49
313.609	17.16
313.821	16.22
314.034	14.77
314.246	14.93
314.459	13.63
314.671	13.69
314.884	14.99
315.096	13.49
315.309	14.29
315.521	14.75
315.733	16.23
315.946	16.27
316.158	18.73
316.371	18.08
316.583	15.33
316.795	12.96
317.008	12.37
317.22	14.27
317.432	15.05
317.644	14.51
317.857	13.75
318.069	14.17
318.281	15.33
318.494	11.6
318.706	13.71
318.918	16.13
319.13	19.35
319.342	19.96
319.555	19.72
319.767	18.6
319.979	17.5
320.191	17.63
320.403	17.76
320.615	16.52
320.827	19.3
321.039	18.61
321.252	16.45
321.464	15.71
321.676	15.36
321.888	13.92
322.1	13.41
322.312	14.21
322.524	17.34
322.736	17.24
322.948	16.39
323.16	16.94
323.372	16.47
323.584	17.04
323.796	15.05
324.007	14.91
324.219	15.83
324.431	17.27
324.643	18.58
324.855	17.37
325.067	17.37
325.279	17.41
325.491	17.39
325.702	18.66
325.914	20.66
326.126	21.73
326.338	22.72
326.55	24.13
326.761	24.36
326.973	24.14
327.185	23.86
327.396	23.34
327.608	24.72
327.82	23.36
328.032	22.61
328.243	22.16
328.455	23.23
328.666	23.05
328.878	21.58
329.09	22.63
329.301	22.51
329.513	24.13
329.725	25.08
329.936	25.27
330.148	28.15
330.359	29
330.571	29.49
330.782	30.43
330.994	30.42
331.205	30.15
331.417	30.53
331.628	30.39
331.84	29.52
332.051	30.26
332.262	32.2
332.474	30.04
332.685	29.03
332.897	27.95
333.108	27.07
333.319	27.63
333.531	29.39
333.742	28.38
333.953	29.4
334.165	29.9
334.376	28.51
334.587	27.7
334.799	28.93
335.01	30.73
335.221	32.14
335.432	33.02
335.644	33.71
335.855	33.47
336.066	34.13
336.277	34.04
336.488	34.37
336.7	36.81
336.911	38.59
337.122	39.87
337.333	39.41
337.544	40.25
337.755	40.81
337.966	39.93
338.177	39.15
338.388	40.29
338.599	40.74
338.811	40.82
339.022	39.15
339.233	36.19
339.444	34.62
339.655	34.5
339.866	33.27
340.076	32.85
340.287	34.57
340.498	35.45
340.709	35.48
340.92	35.72
341.131	36.14
341.342	35.91
341.553	38.27
341.764	39.67
341.975	39.94
342.185	40.13
342.396	40.57
342.607	40.16
342.818	40.2
343.029	39.55
343.239	39.8
343.45	40.47
343.661	41.36
343.872	40.55
344.082	39.07
344.293	39.55
344.504	39.85
344.714	39.63
344.925	39.03
345.136	38.94
345.346	38.65
345.557	38.66
345.768	37.98
345.978	37.04
346.189	36.37
346.399	36.98
346.61	37.23
346.821	36.09
347.031	35.67
347.242	35.88
347.452	34.73
347.663	35.12
347.873	34.71
348.084	35.26
348.294	35.45
348.504	36.58
348.715	37.81
348.925	37.7
349.136	39.16
349.346	38.46
349.557	38.94
349.767	40.9
349.977	39.68
350.188	40.12
350.398	39.83
350.608	40.58
350.819	39.72
351.029	39.22
351.239	39.24
351.449	39.9
351.66	40.61
351.87	40.24
352.08	39.12
352.29	39.79
352.501	40.12
352.711	40.46
352.921	43.59
353.131	44.24
353.341	43.71
353.552	43.06
353.762	41.21
353.972	42.75
354.182	42.12
354.392	42.39
354.602	43.28
354.812	42.4
355.022	41.96
355.232	38.85
355.442	38.46
355.652	38.73
355.862	38.87
356.072	39.7
356.282	39.47
356.492	40.18
356.702	41.15
356.912	41.37
357.122	42.41
357.332	42.36
357.542	42.26
357.752	42.83
357.962	42.46
358.171	42.54
358.381	43.39
358.591	42.38
358.801	41.82
359.011	41.3
359.221	41.07
359.43	40.34
359.64	40.56
359.85	40.96
360.06	40.98
360.269	40.37
360.479	40.24
360.689	39.57
360.899	40.12
361.108	41.17
361.318	40.95
361.528	40.95
361.737	41.06
361.947	39.72
362.156	39.43
362.366	39.05
362.576	39.54
362.785	38.65
362.995	38.71
363.204	38.49
363.414	38.24
363.623	38.35
363.833	38.02
364.042	37.15
364.252	38.57
364.461	38.13
364.671	38.63
364.88	38.56
365.09	39.79
365.299	39.78
365.509	39.38
365.718	38.79
365.927	38.41
366.137	37.45
366.346	38.56
366.555	38.58
366.765	39.1
366.974	38.19
367.183	38.11
367.393	38.62
367.602	38.5
367.811	38.59
368.021	38.41
368.23	38.68
368.439	38.77
368.648	37.49
368.857	36.83
369.067	36.43
369.276	36.66
369.485	37.43
369.694	35.56
369.903	34.88
370.112	34.71
370.321	34.84
370.531	34.13
370.74	34.56
370.949	35.08
371.158	34.5
371.367	33.82
371.576	34.21
371.785	33.75
371.994	33.75
372.203	33.39
372.412	33.53
372.621	32.63
372.83	32.16
373.039	31.8
373.248	31.94
373.457	31.96
373.666	31.94
373.874	31.53
374.083	30.89
374.292	31.75
374.501	32.21
374.71	32.03
374.919	32.8
375.128	33.41
375.336	33.7
375.545	33.23
375.754	32.6
375.963	32.61
376.171	32.43
376.38	32.43
376.589	31.99
376.798	31.72
377.006	31.07
377.215	30.96
377.424	30.37
377.632	29.86
377.841	29.6
378.05	30.15
378.258	30.26
378.467	30.49
378.675	30.33
378.884	30.24
379.093	30.02
379.301	30.56
379.51	30.38
379.718	30.84
379.927	31.09
380.135	31.31
380.344	31.66
380.552	31.97
380.761	31.16
380.969	30.99
381.177	30.71
381.386	31.13
381.594	30.48
381.803	29.87
382.011	29.41
382.219	29.74
382.428	29.08
382.636	28.6
382.845	28.23
383.053	28.85
383.261	28.71
383.469	28.9
383.678	28.41
383.886	28.67
384.094	29
384.302	28.49
384.511	27.79
384.719	28.07
384.927	27.93
385.135	27.79
385.343	27.07
385.552	27.58
385.76	27.09
385.968	27.01
386.176	26.34
386.384	26.17
386.592	26.34
386.8	26.21
387.008	26.2
387.216	25.92
387.424	25.96
387.633	25.95
387.841	25.25
388.049	25.16
388.257	24.78
388.465	25.03
388.672	25.02
388.88	24.9
389.088	24.37
389.296	23.77
389.504	23.83
389.712	23.47
389.92	23.09
390.128	22.96
390.336	23.11
390.544	23.42
390.751	23.27
390.959	23.11
391.167	23.33
391.375	23.77
391.583	24
391.79	23.89
391.998	24.01
392.206	24.18
392.414	24.28
392.621	24.08
392.829	24.24
393.037	24.25
393.244	24.26
393.452	24.18
393.66	24.29
393.867	24.24
394.075	24.09
394.283	23.8
394.49	23.83
394.698	24.11
394.905	24.24
395.113	23.89
395.32	23.87
395.528	24.06
395.735	24.02
395.943	23.83
396.15	23.6
396.358	23.74
396.565	23.85
396.773	23.87
396.98	23.83
397.188	23.92
397.395	23.82
397.602	24.03
397.81	23.75
398.017	24.01
398.225	24.08
398.432	24.13
398.639	24.15
398.847	24.46
399.054	24.5
399.261	24.37
399.468	24.43
399.676	24.5
399.883	24.57
400.09	24.77
400.297	24.76
400.505	24.89
400.712	25.17
400.919	25.21
401.126	25.23
401.333	25.28
401.54	25.04
401.748	24.69
401.955	24.69
402.162	24.54
402.369	24.61
402.576	24.32
402.783	24.08
402.99	24.04
403.197	23.44
403.404	23.31
403.611	23.24
403.818	23.35
404.025	23.4
404.232	23.5
404.439	23.7
404.646	23.49
404.853	23.88
405.06	24.32
405.267	24.17
405.474	24.72
405.681	24.58
405.887	24.51
406.094	24.48
406.301	24.19
406.508	24.14
406.715	24.25
406.922	24.56
407.128	24.27
407.335	23.62
407.542	24.14
407.749	24.23
407.955	24.4
408.162	24.25
408.369	24.49
408.575	25.12
408.782	24.87
408.989	24.31
409.195	24.08
409.402	23.94
409.609	23.91
409.815	23.58
410.022	23.45
410.228	23.44
410.435	23.79
410.642	23.69
410.848	23.31
411.055	23.56
411.261	23.51
411.468	23.52
411.674	23.56
411.881	23.83
412.087	23.78
412.294	23.63
412.5	23.52
412.706	22.96
412.913	22.69
413.119	22.55
413.326	22.77
413.532	23
413.738	22.95
413.945	22.75
414.151	22.53
414.357	22.49
414.564	22.68
414.77	22.81
414.976	23.04
415.182	23.07
415.389	23.06
415.595	22.67
415.801	22.56
416.007	22.26
416.214	22.59
416.42	22.75
416.626	22.79
416.832	22.65
417.038	22.55
417.244	22.7
417.45	22.92
417.657	23.14
417.863	23.35
418.069	23.23
418.275	23.4
418.481	23.03
418.687	22.99
418.893	22.93
419.099	23.08
419.305	23.04
419.511	23.07
419.717	22.91
419.923	22.73
420.129	22.71
420.335	22.86
420.541	22.71
420.746	22.83
420.952	22.77
421.158	22.76
421.364	22.59
421.57	22.6
421.776	22.56
421.982	22.44
422.187	22.61
422.393	22.54
422.599	22.5
422.805	22.65
423.01	22.56
423.216	22.62
423.422	22.65
423.628	22.61
423.833	22.73
424.039	22.68
424.245	22.75
424.45	22.55
424.656	22.49
424.862	22.47
425.067	22.34
425.273	22.43
425.478	22.31
425.684	22.15
425.889	22.04
426.095	21.74
426.301	21.71
426.506	21.63
426.712	21.68
426.917	21.59
427.123	21.46
427.328	21.49
427.533	21.41
427.739	21.35
427.944	21.23
428.15	21.12
428.355	21.08
428.561	21.07
428.766	21.3
428.971	21.28
429.177	21.43
429.382	21.37
429.587	21.22
429.793	21.35
429.998	21.37
430.203	21.42
430.408	21.69
430.614	21.62
430.819	21.52
431.024	21.46
431.229	21.45
431.434	21.53
431.64	21.62
431.845	21.81
432.05	21.49
432.255	21.64
432.46	21.94
432.665	21.77
432.87	21.98
433.076	21.98
433.281	21.77
433.486	21.71
433.691	21.54
433.896	21.65
434.101	21.5
434.306	21.58
434.511	21.5
434.716	21.38
434.921	21.57
435.126	21.46
435.331	21.52
435.535	21.77
435.74	21.8
435.945	21.86
436.15	21.68
436.355	21.68
436.56	21.7
436.765	21.76
436.97	21.93
437.174	21.92
437.379	21.91
437.584	21.82
437.789	21.47
437.993	21.48
438.198	21.44
438.403	21.52
438.608	21.55
438.812	21.52
439.017	21.48
439.222	21.33
439.426	21.22
439.631	21.18
439.836	21.26
440.04	21.61
440.245	21.77
440.45	21.71
440.654	21.7
440.859	21.61
441.063	21.64
441.268	21.68
441.472	21.69
441.677	21.8
441.881	21.8
442.086	21.71
442.29	21.44
442.495	21.3
442.699	21.34
442.904	21.32
443.108	21.47
443.312	21.44
443.517	21.3
443.721	21.14
443.925	20.93
444.13	21.02
444.334	20.86
444.538	20.95
444.743	20.9
444.947	20.95
445.151	21.06
445.356	21.13
445.56	20.97
445.764	20.87
445.968	20.97
446.173	20.99
446.377	20.99
446.581	21.15
446.785	21.09
446.989	20.98
447.193	20.87
447.398	20.8
447.602	20.68
447.806	20.74
448.01	20.83
448.214	20.83
448.418	20.9
448.622	21
448.826	21.02
449.03	21.05
449.234	21.22
449.438	21.06
449.642	21.02
449.846	20.94
450.05	21.09
450.254	21.18
450.458	21.11
450.662	21.01
450.866	20.77
451.069	20.61
451.273	20.51
451.477	20.46
451.681	20.7
451.885	20.75
452.089	20.67
452.292	20.41
452.496	20.33
452.7	20.18
452.904	20.35
453.107	20.35
453.311	20.28
453.515	20.18
453.719	20.2
453.922	20.05
454.126	19.88
454.33	20.19
454.533	20.08
454.737	19.96
454.94	20.22
455.144	20.19
455.348	20.13
455.551	20.23
455.755	20.37
455.958	20.37
456.162	20.45
456.365	20.56
456.569	20.35
456.772	20.52
456.976	20.54
457.179	20.4
457.383	20.58
457.586	20.56
457.79	20.58
457.993	20.61
458.196	20.55
458.4	20.67
458.603	20.51
458.807	20.56
459.01	20.77
459.213	20.82
459.417	20.88
459.62	20.7
459.823	20.7
460.026	20.58
460.23	20.48
460.433	20.51
460.636	20.42
460.839	20.51
461.042	20.55
461.246	20.32
461.449	20.23
461.652	20.18
461.855	20.18
462.058	20.06
462.261	20.22
462.464	20.18
462.668	20.21
462.871	20.25
463.074	20.32
463.277	20.43
463.48	20.42
463.683	20.52
463.886	20.47
464.089	20.37
464.292	20.6
464.495	20.58
464.698	20.69
464.901	20.52
465.104	20.54
465.306	20.55
465.509	20.44
465.712	20.57
465.915	20.71
466.118	20.54
466.321	20.72
466.524	20.6
466.726	20.56
466.929	20.67
467.132	20.87
467.335	21.04
467.538	21
467.74	20.87
467.943	20.86
468.146	20.79
468.348	21.01
468.551	20.99
468.754	21.14
468.956	20.9
469.159	20.99
469.362	21.03
469.564	20.87
469.767	20.92
469.969	21.19
470.172	21.25
470.375	21.26
470.577	21.32
470.78	21.31
470.982	21.22
471.185	21.59
471.387	21.38
471.59	21.3
471.792	21.48
471.995	21.38
472.197	20.98
472.399	21.12
472.602	21.14
472.804	21.1
473.007	21.08
473.209	21.08
473.411	21.31
473.614	21.42
473.816	21.43
474.018	21.29
474.22	21.38
474.423	21.61
474.625	21.54
474.827	21.45
475.03	21.56
475.232	21.69
475.434	21.69
475.636	21.6
475.838	21.62
476.04	21.61
476.243	21.51
476.445	21.55
476.647	21.6
476.849	21.61
477.051	21.49
477.253	21.26
477.455	21.29
477.657	21.31
477.859	21.16
478.061	21.05
478.263	21.12
478.465	21.18
478.667	21.04
478.869	21.03
479.071	21.02
479.273	21.15
479.475	21.34
479.677	21.26
479.879	21.32
480.081	21.34
480.283	21.42
480.485	21.33
480.686	21.51
480.888	21.5
481.09	21.41
481.292	21.34
481.494	21.36
481.695	21.29
481.897	21.27
482.099	21.29
482.301	21.26
482.502	21.29
482.704	21.3
482.906	21.26
483.107	21.27
483.309	21.27
483.511	21.26
483.712	21.3
483.914	21.29
484.115	21.27
484.317	21.32
484.519	21.35
484.72	21.3
484.922	21.26
485.123	21.21
485.325	21.25
485.526	21.25
485.728	21.23
485.929	21.22
486.131	21.29
486.332	21.29
486.534	21.25
486.735	21.23
486.936	21.25
487.138	21.38
487.339	21.43
487.541	21.35
487.742	21.38
487.943	21.45
488.144	21.4
488.346	21.29
488.547	21.23
488.748	21.24
488.95	21.25
489.151	21.24
489.352	21.08
489.553	21.01
489.755	21.06
489.956	21.09
490.157	21.13
490.358	21.15
490.559	21.3
490.76	21.43
490.961	21.37
491.163	21.31
491.364	21.35
491.565	21.45
491.766	21.45
491.967	21.39
492.168	21.4
492.369	21.31
492.57	21.26
492.771	21.19
492.972	21.13
493.173	21.18
493.374	21.19
493.575	21.16
493.776	21.16
493.976	21.15
494.177	21.31
494.378	21.18
494.579	21.17
494.78	21.19
494.981	21.31
495.182	21.3
495.382	21.38
495.583	21.6
495.784	21.69
495.985	21.81
496.185	21.92
496.386	21.7
496.587	21.84
496.788	21.99
496.988	22.18
497.189	22.18
497.39	22.33
497.59	22.09
497.791	22.04
497.992	22.03
498.192	22.01
498.393	21.98
498.593	22.25
498.794	22.19
498.994	22.27
499.195	22.36
499.395	22.39
499.596	22.26
499.796	22.39
499.997	22.46
500.197	22.4
500.398	22.37
500.598	22.36
500.799	22.35
500.999	22.41
501.199	22.37
501.4	22.29
501.6	22.3
501.801	22.35
502.001	22.52
502.201	22.53
502.402	22.61
502.602	22.66
502.802	22.75
503.002	22.8
503.203	22.92
503.403	22.94
503.603	23.09
503.803	23.2
504.003	23.34
504.204	23.44
504.404	23.45
504.604	23.5
504.804	23.49
505.004	23.57
505.204	23.68
505.404	23.59
505.604	23.71
505.804	23.55
506.005	23.41
506.205	23.5
506.405	23.44
506.605	23.54
506.805	23.92
507.005	23.92
507.204	24.06
507.404	23.99
507.604	24.33
507.804	24.4
508.004	24.43
508.204	24.53
508.404	24.68
508.604	24.72
508.804	24.74
509.003	24.65
509.203	24.85
509.403	24.74
509.603	24.88
509.803	24.84
510.002	24.81
510.202	25.01
510.402	25.07
510.602	25.05
510.801	25.09
511.001	25.07
511.201	25.16
511.4	25.19
511.6	25.5
511.8	25.67
511.999	25.61
512.199	25.81
512.398	25.72
512.598	25.85
512.797	25.83
512.997	26.05
513.197	26.18
513.396	26.31
513.596	26.28
513.795	26.13
513.994	26.02
514.194	26.18
514.393	26.19
514.593	26.4
514.792	26.49
514.992	26.66
515.191	26.9
515.39	27.06
515.59	27.2
515.789	27.45
515.988	27.71
516.188	27.96
516.387	27.89
516.586	28.03
516.786	28.2
516.985	28.27
517.184	28.46
517.383	28.31
517.582	28.4
517.782	28.35
517.981	28.45
518.18	28.66
518.379	28.82
518.578	29.11
518.777	29.08
518.976	29.3
519.176	29.46
519.375	29.62
519.574	29.73
519.773	29.83
519.972	29.97
520.171	30.08
520.37	30.08
520.569	30.06
520.768	30.14
520.967	30.41
521.166	30.28
521.365	30.37
521.564	30.26
521.762	30.2
521.961	30.26
522.16	30.36
522.359	30.46
522.558	30.45
522.757	30.63
522.956	30.68
523.154	30.78
523.353	30.96
523.552	30.97
523.751	31.15
523.949	31.29
524.148	31.45
524.347	31.67
524.546	31.78
524.744	31.88
524.943	31.99
525.142	32.17
525.34	32.27
525.539	32.45
525.737	32.53
525.936	32.66
526.135	32.87
526.333	32.99
526.532	33.02
526.73	32.95
526.929	33.06
527.127	33.24
527.326	33.2
527.524	33.26
527.723	33.41
527.921	33.58
528.12	33.62
528.318	33.64
528.516	33.64
528.715	33.74
528.913	33.88
529.112	34.04
529.31	33.98
529.508	34.09
529.707	34.18
529.905	34.21
530.103	34.25
530.301	34.31
530.5	34.47
530.698	34.58
530.896	34.54
531.094	34.69
531.293	34.72
531.491	34.8
531.689	34.87
531.887	35.04
532.085	35
532.283	35.08
532.481	35.16
532.68	35.24
532.878	35.4
533.076	35.44
533.274	35.47
533.472	35.51
533.67	35.72
533.868	35.8
534.066	35.83
534.264	35.91
534.462	35.95
534.66	36.01
534.858	36.04
535.056	35.98
535.253	36.1
535.451	36.13
535.649	36.24
535.847	36.27
536.045	36.34
536.243	36.37
536.441	36.34
536.638	36.32
536.836	36.46
537.034	36.53
537.232	36.56
537.43	36.76
537.627	36.74
537.825	36.77
538.023	36.79
538.22	36.9
538.418	36.8
538.616	36.95
538.813	37.03
539.011	36.96
539.209	37.06
539.406	37.27
539.604	37.1
539.801	37.37
539.999	37.39
540.196	37.24
540.394	37.2
540.591	37.4
540.789	37.55
540.986	37.69
541.184	37.8
541.381	37.79
541.579	37.73
541.776	37.83
541.974	37.8
542.171	37.74
542.368	38
542.566	38.07
542.763	37.95
542.96	38
543.158	37.99
543.355	38.03
543.552	38.13
543.75	38.37
543.947	38.4
544.144	38.51
544.341	38.72
544.539	38.76
544.736	38.81
544.933	39.03
545.13	39.02
545.327	38.99
545.524	38.98
545.722	38.91
545.919	38.8
546.116	38.92
546.313	38.89
546.51	38.92
546.707	38.86
546.904	38.83
547.101	38.75
547.298	38.87
547.495	39.08
547.692	39.33
547.889	39.42
548.086	39.54
548.283	39.49
548.48	39.53
548.677	39.56
548.874	39.72
549.07	39.82
549.267	40.12
549.464	40
549.661	39.81
549.858	39.57
550.055	39.56
550.251	39.36
550.448	39.5
550.645	39.67
550.842	39.82
551.038	39.57
551.235	39.62
551.432	39.46
551.628	39.48
551.825	39.53
552.022	39.69
552.218	39.77
552.415	40
552.612	39.97
552.808	39.82
553.005	39.64
553.201	39.63
553.398	39.66
553.594	39.67
553.791	39.69
553.987	39.8
554.184	39.73
554.38	39.76
554.577	39.84
554.773	39.86
554.97	40.01
555.166	40.3
555.362	40.43
555.559	40.51
555.755	40.51
555.952	40.78
556.148	40.73
556.344	40.94
556.541	40.93
556.737	41.02
556.933	41.38
557.129	41.25
557.326	41.27
557.522	41.22
557.718	41.33
557.914	41.54
558.11	41.51
558.307	41.69
558.503	41.42
558.699	41.58
558.895	41.58
559.091	41.29
559.287	41.46
559.483	41.54
559.679	41.89
559.876	41.66
560.072	41.37
560.268	41.38
560.464	41.43
560.66	41.83
560.856	41.72
561.052	41.65
561.247	41.85
561.443	41.94
561.639	41.77
561.835	41.64
562.031	41.83
562.227	42.1
562.423	41.92
562.619	42.02
562.815	41.87
563.01	41.98
563.206	42.2
563.402	42
563.598	42.07
563.793	42.17
563.989	42.23
564.185	42.22
564.381	42.12
564.576	42.4
564.772	42.3
564.968	42.36
565.163	42.33
565.359	42.22
565.555	42.26
565.75	42.21
565.946	42.24
566.141	42.32
566.337	42.42
566.532	42.65
566.728	42.68
566.923	42.77
567.119	42.78
567.314	42.8
567.51	42.65
567.705	42.87
567.901	42.88
568.096	42.88
568.292	42.75
568.487	42.65
568.682	42.46
568.878	42.18
569.073	42.09
569.268	42.04
569.464	42.14
569.659	42.33
569.854	42.27
570.05	42.36
570.245	42.26
570.44	42.35
570.635	42.46
570.831	42.39
571.026	42.59
571.221	42.74
571.416	42.85
571.611	42.8
571.806	42.75
572.002	42.66
572.197	42.68
572.392	42.76
572.587	42.78
572.782	42.68
572.977	43
573.172	42.98
573.367	42.84
573.562	42.65
573.757	42.53
573.952	42.41
574.147	42.62
574.342	42.52
574.537	42.44
574.732	42.47
574.927	42.46
575.121	42.23
575.316	42.22
575.511	42.32
575.706	42.4
575.901	42.48
576.096	42.44
576.29	42.28
576.485	42.29
576.68	42.63
576.875	42.75
577.069	42.94
577.264	42.83
577.459	42.72
577.654	42.62
577.848	42.69
578.043	42.79
578.238	43.02
578.432	42.92
578.627	43.05
578.821	42.8
579.016	42.64
579.21	42.51
579.405	42.85
579.6	43.18
579.794	43.21
579.989	43.17
580.183	43.02
580.378	42.93
580.572	42.91
580.766	42.7
580.961	42.84
581.155	42.29
581.35	42.44
581.544	42.25
581.738	42.3
581.933	42.45
582.127	42.64
582.321	42.9
582.516	43.08
582.71	43.17
582.904	43.03
583.099	42.83
583.293	43.47
583.487	43.51
583.681	43.79
583.875	43.64
584.07	43.7
584.264	43.43
584.458	43.39
584.652	43.51
584.846	43.64
585.04	43.87
585.234	43.89
585.428	43.7
585.623	43.69
585.817	43.49
586.011	43.71
586.205	43.7
586.399	43.78
586.593	43.9
586.787	43.98
586.981	43.7
587.174	44.08
587.368	44.04
587.562	44.45
587.756	44.14
587.95	44.26
588.144	44.17
588.338	44.07
588.532	44.02
588.725	44.13
588.919	43.94
589.113	44.35
589.307	44.18
589.501	44.15
589.694	43.86
589.888	44.35
590.082	44.48
590.275	44.17
590.469	44.26
590.663	44.76
590.856	44.31
591.05	44.24
591.244	44.04
591.437	44.3
591.631	44.42
591.824	44.46
592.018	44.13
592.212	43.9
592.405	44.12
592.599	44.18
592.792	43.87
592.986	44.16
593.179	44.19
593.372	44.01
593.566	43.77
593.759	44.03
593.953	44.22
594.146	44.37
594.339	44.54
594.533	44.66
594.726	44.54
594.92	44.81
595.113	44.92
595.306	45.14
595.499	45.48
595.693	45.28
595.886	45.15
596.079	45
596.272	45.06
596.466	45.02
596.659	45.13
596.852	45.24
597.045	45.15
597.238	45
597.431	44.97
597.624	45.05
597.818	45.3
598.011	45.49
598.204	45.6
598.397	45.48
598.59	45.47
598.783	45.54
598.976	45.46
599.169	45.31
599.362	45.53
599.555	45.24
599.748	45.32
599.941	45.07
600.134	44.96
600.326	44.87
600.519	45.15
600.712	44.97
600.905	44.72
601.098	44.89
601.291	44.8
601.483	44.65
601.676	44.67
601.869	44.72
602.062	45.03
602.255	44.85
602.447	44.96
602.64	44.96
602.833	45.17
603.025	45.29
603.218	45.28
603.411	45.63
603.603	45.68
603.796	45.91
603.989	45.66
604.181	45.52
604.374	45.51
604.566	45.58
604.759	45.42
604.951	45.53
605.144	45.52
605.336	45.39
605.529	45.26
605.721	45.28
605.914	45.18
606.106	45.27
606.299	45.39
606.491	45.59
606.683	45.55
606.876	45.6
607.068	45.61
607.26	45.7
607.453	45.73
607.645	45.46
607.837	45.53
608.03	45.44
608.222	45.22
608.414	45.22
608.606	45.09
608.799	45.23
608.991	45.36
609.183	45.08
609.375	45.03
609.567	45.02
609.759	45.24
609.952	45.18
610.144	45.38
610.336	45.51
610.528	45.33
610.72	45.35
610.912	45.08
611.104	45.1
611.296	45.31
611.488	45.08
611.68	45.09
611.872	45.14
612.064	45.09
612.256	44.87
612.448	45.01
612.64	44.99
612.832	44.87
613.023	44.94
613.215	44.83
613.407	44.9
613.599	45.24
613.791	45.4
613.983	45.52
614.174	45.69
614.366	45.83
614.558	45.97
614.75	46.1
614.941	46.34
615.133	46.35
615.325	46.12
615.516	45.9
615.708	45.47
615.9	45.55
616.091	45.37
616.283	45.27
616.475	45.17
616.666	44.96
616.858	45.41
617.049	45.4
617.241	45.52
617.432	45.45
617.624	45.41
617.815	45.87
618.007	45.83
618.198	46.1
618.39	46.41
618.581	46.52
618.773	46.5
618.964	46.23
619.155	46.36
619.347	46.31
619.538	46.55
619.729	46.86
619.921	46.49
620.112	46.29
620.303	45.75
620.494	45.24
620.686	45.47
620.877	45.46
621.068	45.46
621.259	45.16
621.451	45.36
621.642	45.22
621.833	45
622.024	45.13
622.215	45.23
622.406	45.41
622.597	45.65
622.788	45.24
622.98	45.31
623.171	45.12
623.362	44.98
623.553	44.72
623.744	44.83
623.935	45.03
624.126	44.86
624.317	44.9
624.508	44.9
624.698	44.92
624.889	45.37
625.08	45.25
625.271	45.39
625.462	45.9
625.653	46.26
625.844	46.38
626.034	46.3
626.225	46.52
626.416	46.73
626.607	46.83
626.798	46.84
626.988	46.6
627.179	46.53
627.37	46.54
627.56	46.39
627.751	46.1
627.942	46.07
628.132	45.94
628.323	45.97
628.514	45.51
628.704	45.53
628.895	45.6
629.085	45.44
629.276	45.33
629.466	45.51
629.657	45.51
629.847	45.49
630.038	45.56
630.228	46.02
630.419	46.01
630.609	46.23
630.8	46.17
630.99	46.08
631.181	46.24
631.371	46.34
631.561	45.71
631.752	45.77
631.942	45.74
632.132	45.82
632.323	45.52
632.513	45.1
632.703	44.89
632.893	44.97
633.084	44.8
633.274	44.92
633.464	45.23
633.654	45.93
633.844	46
634.034	46.15
634.225	46.06
634.415	45.91
634.605	46.13
634.795	46.34
634.985	45.94
635.175	46
635.365	45.93
635.555	46.08
635.745	45.64
635.935	45.83
636.125	45.53
636.315	45.46
636.505	45.51
636.695	45.68
636.885	45.78
637.075	45.75
637.265	45.61
637.455	45.63
637.644	45.21
637.834	45.35
638.024	44.87
638.214	45.2
638.404	45.15
638.593	45.35
638.783	45.21
638.973	45.27
639.163	45.87
639.352	46.56
639.542	46.8
639.732	46.9
639.921	47.05
640.111	47.27
640.301	47.17
640.49	47.34
640.68	47.14
640.87	47.08
641.059	47.05
641.249	46.85
641.438	46.16
641.628	45.78
641.817	46.16
642.007	45.95
642.196	45.57
642.386	45.46
642.575	45.24
642.764	45.28
642.954	45.12
643.143	45.27
643.333	45.27
643.522	45.29
643.711	45.5
643.901	45.14
644.09	45.2
644.279	45.43
644.469	45.47
644.658	45.46
644.847	45.7
645.036	46.07
645.226	45.97
645.415	46.07
645.604	46.29
645.793	46.76
645.982	46.87
646.171	46.9
646.361	47.17
646.55	47.06
646.739	47.21
646.928	46.97
647.117	46.73
647.306	46.16
647.495	46
647.684	46.03
647.873	45.43
648.062	45.12
648.251	45.19
648.44	45.28
648.629	45.42
648.818	45.7
649.007	46.13
649.196	46.16
649.384	46.31
649.573	46.1
649.762	46.09
649.951	46.12
650.14	46.91
650.328	46.78
650.517	46.29
650.706	46.41
650.895	46.17
651.083	45.94
651.272	46.54
651.461	46.74
651.65	46.91
651.838	46.66
652.027	46.76
652.216	45.88
652.404	45.95
652.593	45.89
652.781	45.47
652.97	45.45
653.158	45.35
653.347	45.18
653.535	44.96
653.724	45.18
653.912	45.61
654.101	45.23
654.289	45.77
654.478	45.67
654.666	46.03
654.855	46.47
655.043	46.41
655.231	46.11
655.42	46.07
655.608	46.51
655.796	46.2
655.985	45.98
656.173	46.63
656.361	46.36
656.55	46.16
656.738	45.99
656.926	45.65
657.114	45.67
657.302	45.71
657.491	45.73
657.679	45.52
657.867	45.71
658.055	45.76
658.243	45.57
658.431	45.45
658.619	45.72
658.807	45.53
658.996	45.79
659.184	45.72
659.372	45.82
659.56	45.61
659.748	45.8
659.936	45.84
660.124	45.88
660.311	45.83
660.499	46.03
660.687	45.97
660.875	46.27
661.063	46.45
661.251	46.72
661.439	46.98
661.627	47.08
661.814	46.75
662.002	46.96
662.19	47.38
662.378	47.39
662.565	47.2
662.753	47.2
662.941	47.29
663.129	47.13
663.316	47.07
663.504	46.99
663.692	46.93
663.879	47.37
664.067	47.38
664.254	47.18
664.442	46.98
664.63	47.11
664.817	47.02
665.005	46.42
665.192	45.91
665.38	45.75
665.567	45.78
665.755	45.55
665.942	45.62
666.13	45.28
666.317	44.83
666.504	45.09
666.692	45.13
666.879	45.52
667.067	45.92
667.254	46.72
667.441	46.96
667.629	46.51
667.816	46.92
668.003	46.86
668.19	47.24
668.378	47.31
668.565	47.11
668.752	46.91
668.939	46.72
669.127	46.72
669.314	46.49
669.501	46.62
669.688	46.5
669.875	46.02
670.062	46.11
670.249	45.57
670.436	45.51
670.623	45.93
670.81	46.17
670.997	46.44
671.184	46.33
671.371	46.46
671.558	45.92
671.745	46.11
671.932	46.6
672.119	45.98
672.306	46.11
672.493	46
672.68	45.56
672.867	45.6
673.054	45.36
673.24	44.92
673.427	43.94
673.614	43.66
673.801	43.78
673.988	43.18
674.174	43.76
674.361	44.05
674.548	43.97
674.734	44.7
674.921	44.55
675.108	44.61
675.294	45.17
675.481	45.44
675.668	45.7
675.854	45.76
676.041	45.99
676.227	45.63
676.414	45.01
676.601	45.44
676.787	44.79
676.974	44.93
677.16	44.74
677.347	44.98
677.533	45.21
677.719	45.24
677.906	45.61
678.092	46.04
678.279	45.92
678.465	45.75
678.651	45.88
678.838	46.39
679.024	46.41
679.21	46.59
679.397	46.22
679.583	46.61
679.769	46.6
679.955	46.26
680.142	46.31
680.328	46.35
680.514	46.49
680.7	46.3
680.886	46.18
681.073	46.2
681.259	46.05
681.445	46.13
681.631	45.85
681.817	46.26
682.003	46.39
682.189	46.18
682.375	46.02
682.561	46.64
682.747	46.45
682.933	46.21
683.119	45.92
683.305	46.23
683.491	46.25
683.677	45.93
683.863	45.4
684.049	45.6
684.235	45.48
684.42	45.94
684.606	45.6
684.792	45.77
684.978	45.68
685.164	45.9
685.349	45.49
685.535	45.64
685.721	46.14
685.907	46.39
686.092	46.58
686.278	47.08
686.464	46.8
686.649	46.79
686.835	46.76
687.021	46.67
687.206	46.56
687.392	46.68
687.577	46.34
687.763	46.58
687.948	46.81
688.134	46.74
688.319	46.62
688.505	46.87
688.69	47.15
688.876	46.87
689.061	46.73
689.247	46.87
689.432	46.85
689.618	46.8
689.803	46.92
689.988	47.34
690.174	46.37
690.359	46.35
690.544	46.35
690.73	45.99
690.915	46.68
691.1	46.9
691.285	46.72
691.471	46.67
691.656	46.58
691.841	45.89
692.026	44.91
692.211	46.03
692.396	45.91
692.582	45.38
692.767	45.5
692.952	45.45
693.137	45.55
693.322	45.94
693.507	46.25
693.692	46.95
693.877	47.44
694.062	47.9
694.247	47.71
694.432	47.85
694.617	48.34
694.802	47.81
694.987	46.95
695.172	47
695.357	46.55
695.541	46.06
695.726	45.16
695.911	45.03
696.096	44.65
696.281	44.58
696.466	44.29
696.65	43.9
696.835	44.74
697.02	45.5
697.204	45.65
697.389	46.34
697.574	46.57
697.759	47.43
697.943	47.24
698.128	47.49
698.312	47.06
698.497	46.93
698.682	46.83
698.866	46.32
699.051	45.92
699.235	45.96
699.42	45.39
699.604	45.33
699.789	44.88
699.973	45
700.158	44.68
700.342	45.05
700.527	45.51
700.711	46.04
700.895	46
701.08	45.49
701.264	45.08
701.448	45.23
701.633	45.09
701.817	45.5
702.001	45.6
702.186	45.48
702.37	45.23
702.554	44.27
702.738	43.6
702.923	44.13
703.107	45.57
703.291	45.58
703.475	46.26
703.659	46.63
703.843	46.31
704.027	45.9
704.212	46.02
704.396	45.4
704.58	46.18
704.764	46.32
704.948	45.96
705.132	44.98
705.316	44.82
705.5	44.1
705.684	44.18
705.868	43.76
706.052	43.91
706.235	44.62
706.419	46.01
706.603	45.8
706.787	46.91
706.971	47.64
707.155	47.67
707.339	48.45
707.522	48.25
707.706	48.36
707.89	47.93
708.074	47.35
708.257	47
708.441	46.55
708.625	46.43
708.808	45.54
708.992	44.57
709.176	44.85
709.359	44.16
709.543	44.38
709.727	44.29
709.91	44.92
710.094	45.1
710.277	44.19
710.461	44.07
710.644	44.23
710.828	43.87
711.011	44.23
711.195	44.66
711.378	44.85
711.562	45.25
711.745	45.16
711.928	44.82
712.112	44.65
712.295	45.35
712.478	45.75
712.662	45.39
712.845	45.66
713.028	45.43
713.212	45.66
713.395	45.77
713.578	45.36
713.761	45.1
713.945	45.88
714.128	46.69
714.311	46.44
714.494	45.34
714.677	45.44
714.86	45.01
715.043	45.59
715.227	45.63
715.41	45
715.593	45.42
715.776	45.23
715.959	44.63
716.142	44.63
716.325	44.84
716.508	45.35
716.691	45.81
716.874	46.62
717.057	46.37
717.239	45.84
717.422	46.65
717.605	46.91
717.788	46.94
717.971	46.24
718.154	45.47
718.337	45.53
718.519	44.79
718.702	44.24
718.885	43.61
719.068	43.45
719.25	43.24
719.433	42.54
719.616	40.84
719.798	41
719.981	42.08
720.164	43.17
720.346	43.75
720.529	44.36
720.712	44.53
720.894	44.48
721.077	44.06
721.259	42.81
721.442	43.71
721.624	44.26
721.807	44.51
721.989	43.98
722.172	43.03
722.354	41.93
722.537	41.55
722.719	42.53
722.901	42.21
723.084	42.45
723.266	44
723.448	44.3
723.631	45.29
723.813	44.88
723.995	45.53
724.178	45.26
724.36	46.39
724.542	47.76
724.724	48.11
724.907	48.4
725.089	48.01
725.271	48.32
725.453	47.98
725.635	47.47
725.817	47.58
725.999	47.42
726.181	47.95
726.364	47.74
726.546	47.93
726.728	47.56
726.91	47.99
727.092	48.47
727.274	48.21
727.456	47.62
727.638	46.53
727.819	46.52
728.001	46.63
728.183	45.97
728.365	45.12
728.547	44.72
728.729	43.88
728.911	44.31
729.093	44.06
729.274	43.68
729.456	43.57
729.638	44.83
729.82	44.78
730.001	43.83
730.183	43.83
730.365	44.12
730.546	43.64
730.728	43.65
730.91	42.89
731.091	43.15
731.273	43.52
731.455	43.95
731.636	43.47
731.818	43.43
731.999	44.13
732.181	44.57
732.362	45.38
732.544	45.79
732.725	45.75
732.907	45.79
733.088	46.05
733.27	45.93
733.451	45.05
733.633	45.5
733.814	45.66
733.995	45.75
734.177	44.61
734.358	43.77
734.539	42.88
734.721	42.9
734.902	42.47
735.083	42.01
735.264	42.59
735.446	42.97
735.627	42.46
735.808	41.92
735.989	41.18
736.17	42.56
736.351	43.16
736.533	43.91
736.714	44.1
736.895	45.38
737.076	45.26
737.257	44.92
737.438	45.96
737.619	46.6
737.8	47.6
737.981	49.23
738.162	48.27
738.343	48.16
738.524	47.9
738.705	47.35
738.886	46.38
739.067	47.06
739.247	47.28
739.428	47.06
739.609	46.72
739.79	45.77
739.971	45.39
740.151	46.32
740.332	46.2
740.513	46.33
740.694	47.23
740.874	47.25
741.055	47.45
741.236	47.27
741.417	46.2
741.597	46.45
741.778	46.89
741.958	45.86
742.139	44.99
742.32	44.45
742.5	44.12
742.681	43.73
742.861	43.44
743.042	42.58
743.222	41.48
743.403	42.5
743.583	40.89
743.764	41.6
743.944	40.88
744.124	42.12
744.305	41.67
744.485	41.94
744.666	41.67
744.846	41.21
745.026	42.38
745.207	43.4
745.387	42.04
745.567	43.2
745.747	43.24
745.928	44.45
746.108	44.79
746.288	45.3
746.468	44.32
746.648	43.54
746.829	46.34
747.009	45.48
747.189	44.5
747.369	46.64
747.549	47.19
747.729	45.45
747.909	45.45
748.089	44.55
748.269	43.29
748.449	44.99
748.629	45.75
748.809	44.14
748.989	44.97
749.169	43.97
749.349	42.54
749.529	41.68
749.709	42.29
749.889	42.26
750.068	41.61
750.248	43.15
750.428	42.11
750.608	41.35
750.788	40.5
750.967	39.21
751.147	40.77
751.327	42.11
751.507	41.23
751.686	43.1
751.866	41.69
752.046	42.69
752.225	42.7
752.405	43.36
752.585	42.92
752.764	43.72
752.944	43.93
753.123	44.85
753.303	43.5
753.482	44.32
753.662	43.46
753.841	44.32
754.021	44.14
754.2	44.88
754.38	44.03
754.559	46.7
754.739	46.04
754.918	46.79
755.097	45.38
755.277	45.26
755.456	45.51
755.635	44.08
755.815	44.61
755.994	44.11
756.173	42.39
756.352	42.5
756.532	40.34
756.711	41.4
756.89	41.35
757.069	40.25
757.248	39.78
757.427	39.25
757.607	40.32
757.786	39.57
757.965	40.95
758.144	42.15
758.323	42.68
758.502	43.52
758.681	44.1
758.86	44.29
759.039	45.7
759.218	46.05
759.397	46.87
759.576	46.81
759.755	46.96
759.934	46.26
760.113	46.07
760.291	45.95
760.47	46.17
760.649	45.75
760.828	45.14
761.007	44.89
761.186	45.38
761.364	45.1
761.543	45.36
761.722	45.22
761.901	45.16
762.079	44.5
762.258	44.29
762.437	43.51
762.615	44.14
762.794	44.99
762.972	44.06
763.151	44.96
763.33	44.73
763.508	45.07
763.687	45.69
763.865	46.18
764.044	46.77
764.222	47.75
764.401	47.56
764.579	46.49
764.758	45.1
764.936	46.38
765.114	45.56
765.293	46.07
765.471	46.03
765.65	46.96
765.828	44.99
766.006	44.89
766.184	42.76
766.363	43.89
766.541	43.68
766.719	44.42
766.898	44.29
767.076	45.2
767.254	45.6
767.432	44.4
767.61	43.23
767.788	44.17
767.967	43.78
768.145	45.05
768.323	43.24
768.501	45.4
768.679	45.38
768.857	43.65
769.035	41.54
769.213	40.18
769.391	39.58
769.569	38.38
769.747	40.82
769.925	38.04
770.103	37.63
770.281	38.57
770.459	37.12
770.636	36.94
770.814	37.83
770.992	40.58
771.17	41.37
771.348	41.26
771.525	42.84
771.703	41.14
771.881	42.84
772.059	44.01
772.236	45.76
772.414	47.95
772.592	47.04
772.769	46
772.947	44.51
773.125	44.72
773.302	43.94
773.48	44.81
773.657	43.17
773.835	45.42
774.013	45.89
774.19	45.23
774.368	43.02
774.545	43.72
774.723	45.34
774.9	42.85
775.077	42.2
775.255	41.93
775.432	40.44
775.61	41.12
775.787	38.86
775.964	36.81
776.142	36.67
776.319	35.35
776.496	35.34
776.674	36.4
776.851	38.19
777.028	40.13
777.205	42.31
777.382	42.63
777.56	45.11
777.737	46.91
777.914	47.98
778.091	47.51
778.268	49.79
778.445	51.38
778.622	46.97
778.8	46.71
778.977	45.64
779.154	44.67
779.331	43.14
779.508	40.95
779.685	42.1
779.862	41.36
780.038	40.03
780.215	38.19
780.392	35.71
780.569	38.74
780.746	41.29
780.923	39.31
781.1	40.02
781.277	37.27
781.453	36.51
781.63	36.95
781.807	37.79
781.984	38.82
782.16	37.98
782.337	40.4
782.514	41.36
782.691	40.3
782.867	40.11
783.044	38.89
783.221	41.77
783.397	43.13
783.574	39.58
783.75	39.02
783.927	40.17
784.103	40.51
784.28	39.08
784.456	38.01
784.633	36.55
784.809	39.68
784.986	44.39
785.162	42.23
785.339	42.71
785.515	43.04
785.692	42.96
785.868	40.22
786.044	41.64
786.221	41.38
786.397	40.71
786.573	40.59
786.749	40.84
786.926	41.11
787.102	44.94
787.278	43.99
787.454	46.29
787.631	49.62
787.807	49.03
787.983	48.34
788.159	49.73
788.335	50.31
788.511	48.43
788.687	46.44
788.863	43.83
789.039	44.59
789.216	44.88
789.392	42.78
789.568	37.26
789.744	40
789.919	41.09
790.095	41.48
790.271	40.39
790.447	42.61
790.623	43.73
790.799	43.3
790.975	40.18
791.151	38.62
791.327	36.93
791.502	44.76
791.678	44.95
791.854	44.4
792.03	41.56
792.205	40.84
792.381	40.42
792.557	39.49
792.733	42.23
792.908	42.67
793.084	43.5
793.259	47.81
793.435	44.65
793.611	42.45
793.786	42.72
793.962	39.92
794.137	39.79
794.313	38.94
794.488	39.25
794.664	36.82
794.839	36.82
795.015	36.92
795.19	34.64
795.366	34.55
795.541	34.05
795.716	34.78
795.892	39.13
796.067	42.78
796.242	41.98
796.418	42.13
796.593	41.24
796.768	42.27
796.944	42.34
797.119	44.8
797.294	40.85
797.469	43.09
797.644	42.88
797.82	43.54
797.995	39.81
798.17	41.17
798.345	40.9
798.52	42.18
798.695	40.06
798.87	37.31
799.045	40.49
799.22	43.57
799.395	40.09
799.57	38.13
799.745	39.63
799.92	38.62
800.095	37.36
800.27	36.76
800.445	36.84
800.62	39
800.795	41.05
800.97	33.06
801.145	34.51
801.319	33.4
801.494	36.56
801.669	33.5
801.844	33.64
802.018	37.62
802.193	37.31
802.368	37.19
802.543	35.38
802.717	39.7
802.892	41.11
803.067	36.51
803.241	37.69
803.416	38.38
803.59	37.21
803.765	42.55
803.94	39.98
804.114	43.29
804.289	43.39
804.463	43.24
804.638	38.51
804.812	41.44
804.986	42.04
805.161	44.64
805.335	43.18
805.51	44.27
805.684	38.34
805.858	39.84
806.033	39.39
806.207	38.42
806.381	40.04
806.556	44.84
806.73	41.62
806.904	45.13
807.078	42.86
807.253	44.4
807.427	42.84
807.601	44.57
807.775	42.78
807.949	39.54
808.123	40.3
808.298	44.52
808.472	45.31
808.646	49.72
808.82	47.2
808.994	49.21
809.168	43.42
809.342	47.02
809.516	46.57
809.69	43.68
809.864	44.7
810.038	42.33
810.212	40.94
810.385	41.5
810.559	37.53
810.733	42.93
810.907	40.94
811.081	44.15
811.255	43.55
811.428	47.11
811.602	46.3
811.776	44.63
811.95	43.31
812.123	38.58
812.297	32.81
812.471	31.84
812.644	22.87
812.818	19.42
812.992	21.57
813.165	17.23
813.339	19.33
813.512	23.17
813.686	23.33
813.86	30.14
814.033	35.49
814.207	37.75
814.38	43.88
814.554	44.57
814.727	53.9
814.9	53.45
815.074	55.37
815.247	53.07
815.421	56.55
815.594	56.43
815.767	53.65
815.941	48.44
816.114	51.63
816.287	51.71
816.46	51.95
816.634	53.35
816.807	51.16
816.98	58.95
817.153	53.14
817.327	53.12
817.5	55.26
817.673	52.21
817.846	53.1
818.019	52.32
818.192	57.16
818.365	56.45
818.538	50.91
818.711	50.17
818.884	41.51
819.057	43.22
819.23	46.61
819.403	48.73
819.576	49.8
819.749	48.08
819.922	47.07
820.095	41.24
820.268	42.25
820.441	44.84
820.614	47.4
820.786	47.16
820.959	46.7
821.132	43.1
821.305	42.47
821.477	41.94
821.65	41.43
821.823	42.56
821.996	42.42
822.168	42.26
822.341	41.63
822.514	41.91
822.686	42.43
822.859	43.31
823.031	44.23
823.204	42.97
823.376	43.8
823.549	44.18
823.722	43.27
823.894	43.42
824.067	43.3
824.239	44.34
824.411	44
824.584	43.81
824.756	43.22
824.929	42.29
825.101	43.04
825.273	42.03
825.446	42.81
825.618	43.11
825.79	43.27
825.963	43.87
826.135	41.5
826.307	42.05
826.479	42.49
826.652	42.05
826.824	43.37
826.996	44.65
827.168	45.08
827.34	43.99
827.512	43.91
827.684	43.71
827.856	43.25
828.029	43.92
828.201	41.99
828.373	40.25
828.545	40.33
828.717	39.66
828.889	39.14
829.061	39.95
829.232	38.61
829.404	39.88
829.576	38.77
829.748	40.2
829.92	41.44
830.092	42.3
830.264	42.11
830.436	44.43
830.607	41.43
830.779	40
830.951	37.13
831.123	36.83
831.294	33.94
831.466	33.7
831.638	30.96
831.809	31
831.981	31.24
832.153	36.32
832.324	29.74
832.496	31.97
832.667	28.77
832.839	26.24
833.011	28.9
833.182	31.84
833.354	39.2
833.525	37.16
833.697	35.38
833.868	37.55
834.039	35
834.211	37.53
834.382	37.63
834.554	40.64
834.725	41.15
834.896	40.08
835.068	39.45
835.239	39.28
835.41	40.99
835.581	39.55
835.753	39.37
835.924	38.66
836.095	37.98
836.266	36.48
836.438	33.98
836.609	35.56
836.78	38.15
836.951	37.42
837.122	34.01
837.293	29.95
837.464	30.84
837.635	27.83
837.806	31.53
837.977	29.79
838.148	33.1
838.319	34.67
838.49	39.71
838.661	41.47
838.832	43.41
839.003	37.37
839.174	47.26
839.345	50.13
839.516	49.16
839.687	51.55
839.857	48.24
840.028	52.31
840.199	53.68
840.37	44.25
840.54	46.37
840.711	44.01
840.882	37.04
841.053	36.26
841.223	36.31
841.394	39.81
841.564	34.71
841.735	40.05
841.906	34.58
842.076	29.99
842.247	28.19
842.417	24.28
842.588	25.02
842.758	36.76
842.929	27.69
843.099	25.42
843.27	26.77
843.44	24.69
843.611	21.88
843.781	22.62
843.951	25.68
844.122	21.85
844.292	15.92
844.462	13.89
844.633	13.79
844.803	28.62
844.973	31.97
845.144	26.31
845.314	47.26
845.484	46.8
845.654	47.32
845.824	53.88
845.995	61.11
846.165	87.02
846.335	77.28
846.505	75.78
846.675	57.61
846.845	59.85
847.015	48.66
847.185	43.66
847.355	54.31
847.525	55.36
847.695	49.02
847.865	55.54
848.035	39.22
848.205	49.03
848.375	48.66
848.545	58.79
848.715	50.16
848.884	68.86
849.054	78.35
849.224	82.37
849.394	92.5
849.564	89.23
849.733	94.18
849.903	111.45
850.073	109.1
850.243	105.53
850.412	106.92
850.582	111.6
850.752	121.45
850.921	111.12
851.091	106.48
851.26	81.09
851.43	88.73
851.599	63.93
851.769	35.95
851.939	18.19
852.108	19.63
852.278	19.54
852.447	22.72
852.616	20.39
852.786	11.5
852.955	8.89
853.125	17.91
853.294	16.19
853.463	33.16
853.633	48.24
853.802	51.09
853.971	49.27
854.141	65.49
854.31	57.66
854.479	49.7
854.648	54.68
854.818	58.26
854.987	51.36
855.156	54.55
855.325	50.76
855.494	51.13
855.663	49.79
855.832	44.34
856.001	42.28
856.171	54.43
856.34	53.42
856.509	46.24
856.678	56.22
856.847	59.03
857.016	56.72
857.185	43.94
857.353	25.94
857.522	30.28
857.691	34.95
857.86	31.52
858.029	27.38
858.198	26.4
858.367	43.93
858.535	50.13
858.704	49.64
858.873	55.79
859.042	54.22
859.21	61.48
859.379	59.97
859.548	67.62
859.717	61.69
859.885	58.54
860.054	56.82
860.222	63.05
860.391	46.27
860.56	60.77
860.728	62.51
860.897	87.98
861.065	101.69
861.234	102.49
861.402	121.57
861.571	93.76
861.739	105.48
861.908	158.02
862.076	120.09
862.244	136.87
862.413	159.97
862.581	112.14
862.749	106.61
862.918	115.13
863.086	96.46
863.254	81.58
863.423	100.65
863.591	86.25
863.759	60.29
863.927	69.59
864.096	52.77
864.264	23.3
864.432	32.78
864.6	33.11
864.768	27.62
864.936	37.65
865.104	12.47
865.272	10.31
865.44	27.89
865.608	55.13
865.776	58.81
865.944	59.52
866.112	90.46
866.28	97.53
866.448	118.52
866.616	179.95
866.784	164.74
866.952	224.21
867.12	192.06
867.288	155.48
867.455	112.5
867.623	101.52
867.791	142.76
867.959	98.18
868.127	81.56
868.294	104.82
868.462	76.89
868.63	90.33
868.797	72.46
868.965	91.01
869.133	119.31
869.3	114.42
869.468	100.47
869.636	100.49
869.803	98.16
869.971	111.02
870.138	97.8
870.306	84.59
870.473	65.78
870.641	57.62
870.808	32.06
870.975	11.71
871.143	14.75
871.31	22.98
871.478	19.79
871.645	21.44
871.812	26.13
871.98	26.97
872.147	23.14
872.314	22.27
872.482	31.24
872.649	33.92
872.816	53.38
872.983	31.2
873.15	37.21
873.318	38.04
873.485	36.5
873.652	3.44
873.819	-15.65
873.986	0.18
874.153	14.11
874.32	16.34
874.487	18.62
874.654	23.97
874.821	42.55
874.988	13.64
875.155	4.24
875.322	-2.9
875.489	19.6
875.656	33.13
875.823	23.26
875.99	19.59
876.157	0.03
876.324	19.09
876.49	-6.21
876.657	-24.15
876.824	-4.9
876.991	12.48
877.157	31.25
877.324	51.54
877.491	46.68
877.658	42.63
877.824	47.29
877.991	61.54
878.157	67.69
878.324	88.41
878.491	73.79
878.657	73.28
878.824	53.75
878.99	49.16
879.157	45.77
879.323	42.57
879.49	51.34
879.656	46.19
879.823	42.65
879.989	30.88
880.156	23.03
880.322	27.21
880.488	14.44
880.655	30.3
880.821	28.91
880.987	35.01
881.154	30.29
881.32	32.53
881.486	31.52
881.652	42.95
881.819	46.64
881.985	49.27
882.151	46.63
882.317	46.95
882.483	47.4
882.649	48.43
882.816	49.29
882.982	51.38
883.148	51.65
883.314	53.87
883.48	50.51
883.646	47.69
883.812	47.65
883.978	48.59
884.144	48.39
884.31	49.02
884.476	48.29
884.642	46.32
884.807	47.91
884.973	47.49
885.139	46.42
885.305	48.18
885.471	52.95
885.637	53.79
885.802	52.27
885.968	54.67
886.134	52.11
886.3	54.93
886.465	51.77
886.631	52.52
886.797	59.94
886.962	61.01
887.128	56.83
887.293	47.2
887.459	48.49
887.625	46.22
887.79	43.27
887.956	51.6
888.121	49.04
888.287	54.66
888.452	50.25
888.618	33.01
888.783	26.75
