Data from 2937835_Reflection_3.txt Node
Date: Wed Jul 15 16:33:23 EDT 2015
User: robert
Spectrometer: USB4E03001
Autoset integration time: false
Trigger mode: 4
Integration Time (sec): 1.000000E-1
Scans to average: 10
Electric dark correction enabled: true
Nonlinearity correction enabled: false
Boxcar width: 5
Stray light correction enabled: false
XAxis mode: Wavelengths
Stop averaging: false
Number of Pixels in Spectrum: 3648
>>>>>Begin Spectral Data<<<<<
177.566	-56.74
177.785	-221.18
178.005	202.14
178.225	243.29
178.445	207.97
178.665	407.69
178.885	133.24
179.105	49.27
179.324	46.71
179.544	57.32
179.764	70.91
179.984	24.41
180.204	332.91
180.423	188.16
180.643	152.21
180.863	149.01
181.083	147.28
181.302	423.44
181.522	812.71
181.742	-188.38
181.961	-106.09
182.181	-70.77
182.401	-173.08
182.621	-1210.83
182.84	-136.04
183.06	-102.61
183.279	-37.31
183.499	-64.16
183.719	-28.94
183.938	-15.63
184.158	13.45
184.377	-0.21
184.597	4.34
184.816	13.06
185.036	6.27
185.256	-20.07
185.475	4.76
185.695	-18.16
185.914	23.71
186.134	44.87
186.353	43.97
186.572	47.97
186.792	30.48
187.011	39.29
187.231	60.23
187.45	43.7
187.67	59.8
187.889	68.42
188.108	56.05
188.328	63.03
188.547	72.83
188.766	39.76
188.986	31.38
189.205	37.28
189.424	46.14
189.644	35.5
189.863	41.58
190.082	46.28
190.302	48.56
190.521	64.89
190.74	42.62
190.959	22.05
191.178	-6.89
191.398	-124.23
191.617	-64.54
191.836	-115.45
192.055	-204.47
192.274	-196.7
192.494	-208.2
192.713	-212.77
192.932	-533.83
193.151	-261.96
193.37	-102.03
193.589	-14.49
193.808	-17.08
194.027	-5.2
194.246	18.81
194.465	4.74
194.685	-27.02
194.904	-37.8
195.123	-32.38
195.342	13.99
195.561	55.84
195.78	46.21
195.999	22.45
196.218	17.05
196.436	-120.17
196.655	-99.25
196.874	-73.17
197.093	5218.46
197.312	226.85
197.531	-267.02
197.75	1399.78
197.969	633.63
198.188	924.33
198.407	-861.39
198.625	-246.85
198.844	-93.27
199.063	-76.87
199.282	-23.74
199.501	4.86
199.719	25.75
199.938	20.9
200.157	39.14
200.376	40.04
200.594	36.5
200.813	41.71
201.032	45.32
201.251	50.01
201.469	50.9
201.688	40.53
201.907	61.51
202.125	65.2
202.344	63.42
202.563	53.34
202.781	49.27
203	45.89
203.218	41.92
203.437	43.11
203.656	37.36
203.874	24.35
204.093	52.11
204.311	47.36
204.53	39.22
204.748	47.67
204.967	48.24
205.185	51.8
205.404	51.66
205.622	45.37
205.841	32.49
206.059	8.44
206.278	30.33
206.496	-6.38
206.715	-41.4
206.933	-175.42
207.151	-316.61
207.37	9523.08
207.588	863.21
207.806	-335.78
208.025	-448.41
208.243	-232.99
208.461	-13.57
208.68	12.45
208.898	134.77
209.116	169.88
209.335	29.28
209.553	0.68
209.771	19.71
209.989	77.11
210.208	65.09
210.426	77.49
210.644	106.19
210.862	75.44
211.081	63.39
211.299	41.33
211.517	61.09
211.735	71.17
211.953	68.09
212.171	39.37
212.39	26.73
212.608	13.69
212.826	32.28
213.044	31.67
213.262	19.83
213.48	28.19
213.698	40.04
213.916	16.89
214.134	27.34
214.352	16.38
214.57	58.32
214.788	64.84
215.006	102.8
215.224	67.65
215.442	52.88
215.66	57.34
215.878	42.26
216.096	32.71
216.314	39.44
216.532	50.53
216.75	57.54
216.968	28.24
217.185	18.38
217.403	2.12
217.621	10.51
217.839	-22.35
218.057	-2.56
218.275	3.43
218.492	13.68
218.71	-3.28
218.928	-16.49
219.146	-46.79
219.363	-39.18
219.581	6.48
219.799	-8.7
220.017	9.87
220.234	23.66
220.452	19.67
220.67	20.91
220.887	21.74
221.105	14.13
221.323	8.65
221.54	21.41
221.758	27.92
221.976	-0.13
222.193	-10.55
222.411	-15.02
222.629	-1.55
222.846	-18.81
223.064	-30.67
223.281	-19.06
223.499	-22.24
223.716	-0.11
223.934	-23.61
224.151	-45.96
224.369	-28.84
224.586	-11.12
224.804	-13.63
225.021	-27.35
225.239	-2.53
225.456	3.23
225.674	5.62
225.891	0.08
226.108	-17.98
226.326	-11.71
226.543	0.24
226.76	1.42
226.978	4.53
227.195	1.35
227.413	4.99
227.63	-1.57
227.847	0.07
228.064	-2.15
228.282	4.61
228.499	5.96
228.716	5.85
228.934	4.05
229.151	3.48
229.368	5.02
229.585	5.09
229.802	2.29
230.02	3.41
230.237	2.72
230.454	0.99
230.671	1.82
230.888	0.72
231.105	-1.16
231.323	-1.01
231.54	-1.47
231.757	-8.18
231.974	-11.37
232.191	-7.88
232.408	-11.71
232.625	-14.2
232.842	-9.13
233.059	-17.48
233.276	-8.41
233.493	-6.14
233.71	-14.42
233.927	-10.88
234.144	-8.46
234.361	-2.71
234.578	-5.75
234.795	0.07
235.012	2.88
235.229	2.18
235.446	0.42
235.663	0.57
235.879	5.13
236.096	7.82
236.313	11.07
236.53	17.79
236.747	19.77
236.964	30.49
237.181	22.14
237.397	16.95
237.614	13.78
237.831	15.47
238.048	15.17
238.264	9.48
238.481	11.15
238.698	6.82
238.915	3.5
239.131	0.44
239.348	-3.99
239.565	0.92
239.781	3.35
239.998	6.52
240.215	9.3
240.431	6.49
240.648	8.77
240.865	8.28
241.081	11.41
241.298	11.08
241.514	9.07
241.731	8.4
241.947	8.35
242.164	7.71
242.38	7.93
242.597	8.47
242.814	9.47
243.03	9.5
243.246	8.84
243.463	8.35
243.679	7.98
243.896	8.92
244.112	10.96
244.329	12.32
244.545	13.27
244.762	12.59
244.978	10.66
245.194	11.32
245.411	11.19
245.627	13.36
245.843	11.12
246.06	9.29
246.276	9.15
246.492	8.11
246.709	6.6
246.925	5.95
247.141	6.1
247.357	6.25
247.574	6.08
247.79	5.47
248.006	4.91
248.222	5.26
248.439	6.03
248.655	4.89
248.871	3.62
249.087	4.41
249.303	4.42
249.519	2.18
249.736	4.5
249.952	3.83
250.168	3.73
250.384	2.84
250.6	1.41
250.816	0.22
251.032	2.45
251.248	4.57
251.464	3.41
251.68	4.52
251.896	8.58
252.112	4.75
252.328	6.47
252.544	7.19
252.76	7.62
252.976	7.37
253.192	7.69
253.408	6.62
253.624	6.59
253.84	6.7
254.056	4.53
254.272	3.99
254.487	5.12
254.703	3.95
254.919	4.34
255.135	4.33
255.351	7.76
255.567	9.48
255.782	11.92
255.998	10.51
256.214	9.61
256.43	12.82
256.646	8.9
256.861	7.71
257.077	8.56
257.293	6.61
257.508	7.25
257.724	4.42
257.94	3.8
258.155	2.78
258.371	2.6
258.587	2.66
258.802	2.02
259.018	3.13
259.234	4.68
259.449	2.73
259.665	3.46
259.88	2.69
260.096	2.93
260.312	3.16
260.527	4.21
260.743	3.89
260.958	4.38
261.174	3.66
261.389	3.99
261.605	3.69
261.82	4.33
262.036	4.31
262.251	4.98
262.466	3.89
262.682	2.55
262.897	0.84
263.113	1.36
263.328	0.68
263.543	2.12
263.759	0.72
263.974	-0.82
264.189	-0.42
264.405	-1.6
264.62	-2.89
264.835	-1.16
265.051	0
265.266	2.17
265.481	3.24
265.696	1.54
265.912	2.41
266.127	2.04
266.342	1.72
266.557	2.56
266.773	2.46
266.988	3.06
267.203	3.72
267.418	3.49
267.633	1.91
267.848	3.62
268.064	5.34
268.279	6.37
268.494	7.23
268.709	7.88
268.924	6.85
269.139	7.69
269.354	7.17
269.569	7.18
269.784	7.41
269.999	6.94
270.214	6.25
270.429	7
270.644	7.14
270.859	7.42
271.074	7.08
271.289	7.47
271.504	7.92
271.719	9.33
271.934	7.94
272.149	6.93
272.363	8.16
272.578	8.75
272.793	8.82
273.008	6.91
273.223	6.69
273.438	7.61
273.653	7.45
273.867	6.45
274.082	4.68
274.297	6.72
274.512	7.38
274.726	6.85
274.941	4.46
275.156	2.83
275.371	4.28
275.585	4.15
275.8	2.12
276.015	3.59
276.229	4.57
276.444	5.83
276.659	4.61
276.873	4.72
277.088	4.65
277.302	3.92
277.517	4.94
277.732	3.72
277.946	2.2
278.161	2.99
278.375	0.09
278.59	-0.08
278.804	-0.71
279.019	0.37
279.233	0.68
279.448	-1.28
279.662	-0.53
279.877	0.17
280.091	-0.08
280.306	0.93
280.52	1.34
280.735	2.23
280.949	3.57
281.163	4.3
281.378	3.81
281.592	4.77
281.806	6.07
282.021	4.9
282.235	4.51
282.449	3.51
282.664	4.19
282.878	4.65
283.092	5.57
283.307	4.7
283.521	2.66
283.735	2.84
283.949	0.31
284.164	1.12
284.378	2.63
284.592	2.36
284.806	3.25
285.02	2.03
285.234	0.89
285.449	0.06
285.663	0.1
285.877	2.52
286.091	2.32
286.305	4.14
286.519	2.57
286.733	1.57
286.947	0.68
287.161	0.52
287.375	0.38
287.589	0.78
287.803	2.03
288.017	1.5
288.231	-0.19
288.445	-0.43
288.659	0.82
288.873	2.78
289.087	4.95
289.301	4.84
289.515	4.38
289.729	5.29
289.943	5.62
290.157	5.07
290.371	4.88
290.584	4.22
290.798	4.05
291.012	2.06
291.226	1.69
291.44	-0.47
291.654	-1.47
291.867	-1.95
292.081	-1.14
292.295	-1.67
292.509	-1.76
292.722	-1.35
292.936	-0.31
293.15	0.12
293.364	1.55
293.577	1.91
293.791	2.96
294.005	5.57
294.218	6.94
294.432	6.96
294.645	8.43
294.859	8.87
295.073	10.16
295.286	11.08
295.5	10.96
295.713	10.82
295.927	10.1
296.14	9.52
296.354	9.12
296.568	10.07
296.781	8.98
296.994	8.4
297.208	8.78
297.421	7.68
297.635	6.3
297.848	6.84
298.062	6.27
298.275	6.1
298.489	6.55
298.702	6.04
298.915	4.25
299.129	4.22
299.342	4.68
299.555	3.95
299.769	5.75
299.982	7.66
300.195	7.39
300.409	6.74
300.622	6.85
300.835	7.41
301.048	7.45
301.262	8.75
301.475	9.35
301.688	10.56
301.901	9.51
302.115	7.47
302.328	6.41
302.541	6.1
302.754	6.35
302.967	6.75
303.18	5.98
303.393	7.67
303.607	8.34
303.82	8.74
304.033	6.38
304.246	6.12
304.459	5.71
304.672	5.48
304.885	6.42
305.098	5.08
305.311	5.06
305.524	5.86
305.737	4.82
305.95	4.73
306.163	3.83
306.376	4.09
306.589	4.79
306.802	4.16
307.015	5.95
307.228	6.23
307.44	7.63
307.653	8.09
307.866	10.01
308.079	10.94
308.292	9.72
308.505	12.07
308.718	11.46
308.93	11.97
309.143	13.3
309.356	12.64
309.569	11.74
309.781	12.54
309.994	11.78
310.207	9.17
310.42	8.98
310.632	9.44
310.845	8.54
311.058	8.52
311.27	8.45
311.483	8.02
311.696	7.58
311.908	8.15
312.121	7.22
312.333	6.36
312.546	7.71
312.759	6.27
312.971	6.13
313.184	4.43
313.396	4.81
313.609	4.82
313.821	3.55
314.034	4.48
314.246	4.14
314.459	4.56
314.671	5.44
314.884	2.7
315.096	4.64
315.309	4.47
315.521	5.56
315.733	6.05
315.946	5.87
316.158	7.72
316.371	7.04
316.583	7.3
316.795	7.99
317.008	8.67
317.22	11.85
317.432	11.9
317.644	12.55
317.857	13.09
318.069	14.02
318.281	14.15
318.494	14.55
318.706	14.57
318.918	12.17
319.13	11.31
319.342	11.97
319.555	10.05
319.767	8.39
319.979	8.84
320.191	9.07
320.403	6.63
320.615	6.01
320.827	6.59
321.039	8.77
321.252	11.34
321.464	13.18
321.676	12.48
321.888	14.72
322.1	17.32
322.312	17.89
322.524	17.81
322.736	19.56
322.948	20.42
323.16	19.87
323.372	18.35
323.584	17.58
323.796	17.03
324.007	16.93
324.219	17.47
324.431	16.86
324.643	13.74
324.855	13.72
325.067	14.1
325.279	14.98
325.491	15.62
325.702	16.75
325.914	16.91
326.126	16.81
326.338	17.31
326.55	16.35
326.761	15.85
326.973	18.25
327.185	17.21
327.396	16.8
327.608	16.92
327.82	17.2
328.032	15.49
328.243	16.5
328.455	16.04
328.666	16.67
328.878	17.74
329.09	18.71
329.301	19.08
329.513	21.17
329.725	22.42
329.936	22.25
330.148	22.8
330.359	22.99
330.571	24.87
330.782	26.63
330.994	27.1
331.205	27.65
331.417	28.96
331.628	30.59
331.84	31.7
332.051	31.3
332.262	32.46
332.474	32.74
332.685	35.99
332.897	35.14
333.108	36.94
333.319	37.11
333.531	37
333.742	36.32
333.953	35.32
334.165	35.35
334.376	37.16
334.587	38.21
334.799	38.77
335.01	37.55
335.221	38.31
335.432	37.53
335.644	38.15
335.855	37.95
336.066	38.35
336.277	39.74
336.488	39.69
336.7	39.66
336.911	39.84
337.122	39.28
337.333	40.61
337.544	40.22
337.755	41.11
337.966	41.31
338.177	41.71
338.388	42.31
338.599	42.23
338.811	42.1
339.022	41.89
339.233	40.96
339.444	43.64
339.655	45.38
339.866	46.41
340.076	46.27
340.287	45.98
340.498	48.02
340.709	48.56
340.92	49.05
341.131	51.18
341.342	51.5
341.553	53.84
341.764	52.09
341.975	51.21
342.185	51.63
342.396	52.34
342.607	54.71
342.818	54.97
343.029	54.58
343.239	54.57
343.45	54.09
343.661	54.61
343.872	53.54
344.082	53.07
344.293	51.76
344.504	50.6
344.714	51.24
344.925	49.59
345.136	47.97
345.346	48.78
345.557	49.75
345.768	49.83
345.978	50.2
346.189	48.83
346.399	49.45
346.61	50.27
346.821	50.33
347.031	49.52
347.242	49.94
347.452	50.57
347.663	50.84
347.873	49.1
348.084	49.06
348.294	48.88
348.504	50.59
348.715	51.41
348.925	51.86
349.136	52.25
349.346	52.05
349.557	52.98
349.767	53.45
349.977	52.91
350.188	54.83
350.398	55.46
350.608	54.79
350.819	54.3
351.029	55.11
351.239	54.9
351.449	55.92
351.66	56.37
351.87	55.27
352.08	54.69
352.29	54.34
352.501	53
352.711	51.56
352.921	54.33
353.131	54.06
353.341	53.39
353.552	53.74
353.762	54.21
353.972	53.58
354.182	54.6
354.392	54.87
354.602	54.47
354.812	55.1
355.022	56.44
355.232	54.81
355.442	54.66
355.652	55.1
355.862	55.2
356.072	55.23
356.282	55.42
356.492	54.27
356.702	54.54
356.912	54.57
357.122	54.07
357.332	53.39
357.542	53.33
357.752	54.14
357.962	53.46
358.171	52.82
358.381	51.63
358.591	51.76
358.801	53.07
359.011	52.75
359.221	53.46
359.43	53.95
359.64	53.1
359.85	52.88
360.06	52.67
360.269	52.44
360.479	52.42
360.689	52.97
360.899	53.13
361.108	53.3
361.318	53.31
361.528	53.9
361.737	52.65
361.947	53.71
362.156	53.58
362.366	53.18
362.576	53.4
362.785	53.31
362.995	53.15
363.204	53.38
363.414	51.7
363.623	51.4
363.833	51.02
364.042	51.81
364.252	51.15
364.461	51.11
364.671	52.02
364.88	51.87
365.09	52.97
365.299	53.41
365.509	52.94
365.718	52.53
365.927	52.83
366.137	51.22
366.346	50.57
366.555	49.9
366.765	49.23
366.974	48.3
367.183	48.25
367.393	47.63
367.602	46.42
367.811	46.21
368.021	47.96
368.23	47.89
368.439	48.93
368.648	49.37
368.857	49.83
369.067	49.42
369.276	49.12
369.485	49.05
369.694	48.65
369.903	49.7
370.112	50.12
370.321	49.26
370.531	49
370.74	48.96
370.949	49.99
371.158	50.23
371.367	50.83
371.576	51.18
371.785	51.18
371.994	50.99
372.203	49.68
372.412	48.99
372.621	49.31
372.83	49.02
373.039	48.62
373.248	47.91
373.457	47.84
373.666	47.75
373.874	46.95
374.083	47.3
374.292	47.11
374.501	48.51
374.71	48.48
374.919	48.1
375.128	48.42
375.336	48.17
375.545	47.8
375.754	47.47
375.963	47.68
376.171	48.13
376.38	47.43
376.589	48
376.798	47.14
377.006	47.19
377.215	46.5
377.424	46.75
377.632	46.95
377.841	47
378.05	47.08
378.258	46.33
378.467	46.31
378.675	45.84
378.884	45.09
379.093	44.85
379.301	44.2
379.51	44.57
379.718	44.08
379.927	43.7
380.135	42.94
380.344	42.78
380.552	42.49
380.761	42.77
380.969	42.92
381.177	43.49
381.386	43.89
381.594	44.38
381.803	43.48
382.011	43.2
382.219	43.34
382.428	43.59
382.636	43.63
382.845	43.94
383.053	43.09
383.261	42.88
383.469	42
383.678	41.39
383.886	41.23
384.094	41.81
384.302	41.76
384.511	41.56
384.719	41.76
384.927	41.69
385.135	41.23
385.343	40.97
385.552	40.67
385.76	40.82
385.968	40.42
386.176	40.24
386.384	40.3
386.592	40.24
386.8	39.96
387.008	39.69
387.216	39.55
387.424	39.47
387.633	39.7
387.841	39.95
388.049	39.68
388.257	39.72
388.465	39.34
388.672	39.08
388.88	38.85
389.088	39.21
389.296	38.88
389.504	38.22
389.712	38.21
389.92	37.8
390.128	37.34
390.336	37.52
390.544	37.4
390.751	37.53
390.959	37.14
391.167	37.12
391.375	36.61
391.583	36.41
391.79	36.72
391.998	36.82
392.206	36.74
392.414	37.01
392.621	36.72
392.829	36.95
393.037	36.75
393.244	36.74
393.452	36.74
393.66	37.03
393.867	37.09
394.075	36.82
394.283	36.88
394.49	36.76
394.698	36.73
394.905	36.93
395.113	36.81
395.32	37.03
395.528	36.8
395.735	36.83
395.943	36.76
396.15	36.86
396.358	36.78
396.565	36.57
396.773	37
396.98	37.31
397.188	36.88
397.395	36.66
397.602	36.33
397.81	36.85
398.017	36.86
398.225	36.95
398.432	37.28
398.639	37.47
398.847	37.51
399.054	37.04
399.261	36.72
399.468	36.88
399.676	37.12
399.883	37.38
400.09	37.24
400.297	36.65
400.505	36.2
400.712	35.86
400.919	35.73
401.126	35.73
401.333	35.92
401.54	35.44
401.748	35.36
401.955	35.36
402.162	35.18
402.369	35.3
402.576	35.66
402.783	35.87
402.99	36.09
403.197	36.39
403.404	36.47
403.611	36.71
403.818	37
404.025	37.09
404.232	36.86
404.439	37.26
404.646	37.17
404.853	37.4
405.06	37.34
405.267	37.16
405.474	36.8
405.681	36.65
405.887	36.55
406.094	36.82
406.301	37.01
406.508	37.18
406.715	36.92
406.922	36.81
407.128	36.67
407.335	36.37
407.542	36.33
407.749	36.16
407.955	36.31
408.162	36.23
408.369	35.94
408.575	36.01
408.782	35.95
408.989	35.86
409.195	35.93
409.402	36.2
409.609	36.72
409.815	36.8
410.022	37.17
410.228	37.34
410.435	37.6
410.642	37.68
410.848	37.3
411.055	37.51
411.261	37.28
411.468	37.06
411.674	36.98
411.881	37.03
412.087	36.94
412.294	37.05
412.5	36.77
412.706	36.49
412.913	36.42
413.119	36.52
413.326	36.13
413.532	36.4
413.738	36.53
413.945	36.26
414.151	35.99
414.357	36.13
414.564	35.83
414.77	35.78
414.976	35.7
415.182	35.6
415.389	35.55
415.595	35.72
415.801	35.64
416.007	35.66
416.214	35.49
416.42	35.63
416.626	35.55
416.832	35.56
417.038	35.68
417.244	35.51
417.45	35.66
417.657	35.71
417.863	35.58
418.069	35.54
418.275	35.57
418.481	35.73
418.687	35.53
418.893	35.43
419.099	35.38
419.305	35.31
419.511	35.33
419.717	35.1
419.923	35.15
420.129	35.17
420.335	34.95
420.541	35.02
420.746	35
420.952	35
421.158	35.05
421.364	35.19
421.57	35.14
421.776	35.12
421.982	35.17
422.187	34.99
422.393	35.07
422.599	35.14
422.805	34.99
423.01	34.88
423.216	34.8
423.422	34.62
423.628	34.43
423.833	34.41
424.039	34.5
424.245	34.51
424.45	34.66
424.656	34.47
424.862	34.51
425.067	34.4
425.273	34.32
425.478	34.36
425.684	34.37
425.889	34.36
426.095	34.45
426.301	34.36
426.506	34.37
426.712	34.13
426.917	34.16
427.123	34.14
427.328	34.37
427.533	34.54
427.739	34.42
427.944	34.6
428.15	34.59
428.355	34.29
428.561	34.26
428.766	33.98
428.971	33.92
429.177	33.75
429.382	33.67
429.587	33.31
429.793	33.32
429.998	33.55
430.203	33.4
430.408	33.19
430.614	33.37
430.819	33.38
431.024	33.49
431.229	33.33
431.434	33.39
431.64	33.43
431.845	33.42
432.05	33.13
432.255	32.98
432.46	33.04
432.665	33.19
432.87	33.05
433.076	32.83
433.281	32.9
433.486	33.03
433.691	33.06
433.896	33.24
434.101	33.22
434.306	33.32
434.511	33.2
434.716	33.12
434.921	33.09
435.126	33.24
435.331	33.24
435.535	33.1
435.74	33.28
435.945	33.13
436.15	32.92
436.355	33.1
436.56	33.21
436.765	33.3
436.97	33.21
437.174	33.18
437.379	32.94
437.584	33.04
437.789	33.26
437.993	33.15
438.198	33.48
438.403	33.53
438.608	33.45
438.812	33.31
439.017	33.34
439.222	33.3
439.426	33.45
439.631	33.58
439.836	33.71
440.04	33.58
440.245	33.39
440.45	33.37
440.654	33.34
440.859	33.39
441.063	33.53
441.268	33.54
441.472	33.68
441.677	33.67
441.881	33.64
442.086	33.47
442.29	33.55
442.495	33.81
442.699	33.56
442.904	33.54
443.108	33.42
443.312	33.28
443.517	33.29
443.721	33.36
443.925	33.23
444.13	33.22
444.334	33.23
444.538	33.24
444.743	33.16
444.947	33.38
445.151	33.23
445.356	33.32
445.56	33.35
445.764	33.32
445.968	33.18
446.173	33.29
446.377	33.34
446.581	33.55
446.785	33.41
446.989	33.51
447.193	33.41
447.398	33.51
447.602	33.44
447.806	33.42
448.01	33.39
448.214	33.47
448.418	33.29
448.622	33.24
448.826	32.87
449.03	32.83
449.234	32.72
449.438	32.6
449.642	32.57
449.846	32.57
450.05	32.49
450.254	32.42
450.458	32.39
450.662	32.24
450.866	32.33
451.069	32.33
451.273	32.47
451.477	32.28
451.681	32.47
451.885	32.52
452.089	32.71
452.292	32.71
452.496	32.9
452.7	32.87
452.904	33.06
453.107	32.79
453.311	32.87
453.515	32.69
453.719	32.97
453.922	32.93
454.126	32.92
454.33	32.63
454.533	32.75
454.737	32.62
454.94	32.59
455.144	32.56
455.348	32.71
455.551	32.74
455.755	32.83
455.958	32.69
456.162	32.77
456.365	32.78
456.569	32.8
456.772	32.6
456.976	32.54
457.179	32.45
457.383	32.27
457.586	32.18
457.79	32.2
457.993	32.27
458.196	32.21
458.4	31.96
458.603	31.88
458.807	31.93
459.01	32.06
459.213	32.18
459.417	32.22
459.62	32.26
459.823	32.39
460.026	32.51
460.23	32.5
460.433	32.49
460.636	32.57
460.839	32.81
461.042	32.91
461.246	32.89
461.449	32.86
461.652	33.01
461.855	33.23
462.058	33.19
462.261	32.94
462.464	33.03
462.668	33.18
462.871	33.17
463.074	32.94
463.277	32.89
463.48	32.87
463.683	32.95
463.886	32.81
464.089	32.82
464.292	32.88
464.495	33.02
464.698	32.77
464.901	32.83
465.104	32.91
465.306	32.78
465.509	32.75
465.712	32.82
465.915	32.79
466.118	32.84
466.321	32.84
466.524	32.53
466.726	32.55
466.929	32.84
467.132	32.77
467.335	32.91
467.538	33.06
467.74	33.12
467.943	33.09
468.146	33.08
468.348	33.15
468.551	33.17
468.754	33.33
468.956	33.64
469.159	33.65
469.362	33.68
469.564	33.65
469.767	33.91
469.969	33.73
470.172	33.8
470.375	33.79
470.577	33.62
470.78	33.65
470.982	33.99
471.185	33.76
471.387	33.54
471.59	33.52
471.792	33.45
471.995	33.35
472.197	33.69
472.399	33.79
472.602	33.86
472.804	33.98
473.007	34.02
473.209	33.78
473.411	33.83
473.614	33.86
473.816	33.72
474.018	33.67
474.22	33.41
474.423	33.25
474.625	33.17
474.827	33.11
475.03	33.01
475.232	33
475.434	33.18
475.636	33.25
475.838	33.36
476.04	33.64
476.243	33.99
476.445	34.12
476.647	34.19
476.849	34.27
477.051	34.45
477.253	34.58
477.455	34.56
477.657	34.57
477.859	34.44
478.061	34.46
478.263	34.17
478.465	33.84
478.667	33.93
478.869	33.88
479.071	33.86
479.273	33.67
479.475	33.51
479.677	33.6
479.879	33.48
480.081	33.41
480.283	33.44
480.485	33.67
480.686	33.73
480.888	33.65
481.09	33.62
481.292	33.52
481.494	33.51
481.695	33.73
481.897	33.61
482.099	33.61
482.301	33.86
482.502	33.86
482.704	33.84
482.906	33.89
483.107	33.9
483.309	33.87
483.511	33.89
483.712	33.94
483.914	33.93
484.115	33.99
484.317	34.03
484.519	33.96
484.72	34.04
484.922	33.99
485.123	34
485.325	34.04
485.526	34.08
485.728	34.07
485.929	34.01
486.131	33.99
486.332	33.99
486.534	33.97
486.735	33.99
486.936	33.9
487.138	33.92
487.339	33.92
487.541	33.86
487.742	33.88
487.943	33.89
488.144	34.01
488.346	34.02
488.547	33.96
488.748	33.85
488.95	33.84
489.151	33.79
489.352	33.84
489.553	33.82
489.755	33.86
489.956	33.84
490.157	33.92
490.358	33.78
490.559	33.8
490.76	33.84
490.961	34
491.163	34
491.364	34.06
491.565	34.08
491.766	34.07
491.967	34.07
492.168	34.12
492.369	34.06
492.57	34.12
492.771	34.06
492.972	34.08
493.173	34.12
493.374	34.11
493.575	34.17
493.776	34.21
493.976	34.2
494.177	34.16
494.378	34.21
494.579	34.27
494.78	34.17
494.981	34.25
495.182	34.33
495.382	34.22
495.583	34.37
495.784	34.21
495.985	34.11
496.185	34.26
496.386	34.44
496.587	34.43
496.788	34.41
496.988	34.47
497.189	34.39
497.39	34.43
497.59	34.31
497.791	34.13
497.992	34.24
498.192	34.32
498.393	34.29
498.593	34.19
498.794	34.18
498.994	34.17
499.195	34.22
499.395	34.31
499.596	34.21
499.796	34.39
499.997	34.52
500.197	34.59
500.398	34.56
500.598	34.58
500.799	34.79
500.999	34.83
501.199	34.81
501.4	34.97
501.6	34.97
501.801	35.08
502.001	35.07
502.201	34.93
502.402	34.84
502.602	35.12
502.802	35.15
503.002	35.13
503.203	35.19
503.403	35.4
503.603	35.39
503.803	35.34
504.003	35.37
504.204	35.54
504.404	35.68
504.604	35.95
504.804	35.87
505.004	36.01
505.204	36.09
505.404	35.98
505.604	35.96
505.804	35.96
506.005	36.18
506.205	36.15
506.405	36.32
506.605	36.58
506.805	36.52
507.005	36.59
507.204	36.46
507.404	36.5
507.604	36.67
507.804	36.58
508.004	36.81
508.204	36.94
508.404	37
508.604	36.97
508.804	36.89
509.003	36.92
509.203	37
509.403	37.05
509.603	37.04
509.803	37.01
510.002	37.2
510.202	37.14
510.402	37.14
510.602	37.19
510.801	37.17
511.001	37.22
511.201	37.25
511.4	37.24
511.6	37.34
511.8	37.26
511.999	37.38
512.199	37.32
512.398	37.3
512.598	37.21
512.797	37.33
512.997	37.37
513.197	37.49
513.396	37.51
513.596	37.52
513.795	37.6
513.994	37.75
514.194	37.73
514.393	37.95
514.593	38.07
514.792	38.29
514.992	38.26
515.191	38.37
515.39	38.36
515.59	38.39
515.789	38.58
515.988	38.71
516.188	38.71
516.387	38.86
516.586	38.87
516.786	38.97
516.985	39
517.184	39.15
517.383	39.23
517.582	39.39
517.782	39.58
517.981	39.58
518.18	39.62
518.379	39.91
518.578	39.97
518.777	40
518.976	40.1
519.176	40.16
519.375	40.23
519.574	40.27
519.773	40.3
519.972	40.27
520.171	40.29
520.37	40.31
520.569	40.29
520.768	40.59
520.967	40.82
521.166	40.73
521.365	40.87
521.564	40.83
521.762	40.96
521.961	41
522.16	41.03
522.359	41.15
522.558	41.09
522.757	41.08
522.956	40.77
523.154	40.63
523.353	40.9
523.552	40.74
523.751	40.82
523.949	40.93
524.148	41.04
524.347	41.22
524.546	41.23
524.744	41.51
524.943	41.47
525.142	41.69
525.34	41.83
525.539	41.9
525.737	42.14
525.936	42.33
526.135	42.28
526.333	42.34
526.532	42.22
526.73	42.37
526.929	42.42
527.127	42.55
527.326	42.59
527.524	42.61
527.723	42.59
527.921	42.47
528.12	42.44
528.318	42.51
528.516	42.48
528.715	42.65
528.913	42.66
529.112	42.71
529.31	42.76
529.508	42.78
529.707	42.82
529.905	42.9
530.103	43.07
530.301	43.11
530.5	43.16
530.698	43.31
530.896	43.22
531.094	43.31
531.293	43.42
531.491	43.44
531.689	43.48
531.887	43.46
532.085	43.37
532.283	43.46
532.481	43.52
532.68	43.57
532.878	43.67
533.076	43.73
533.274	43.7
533.472	43.57
533.67	43.58
533.868	43.59
534.066	43.65
534.264	43.72
534.462	43.72
534.66	43.72
534.858	43.73
535.056	43.58
535.253	43.58
535.451	43.58
535.649	43.63
535.847	43.7
536.045	43.74
536.243	43.88
536.441	43.78
536.638	43.74
536.836	43.82
537.034	43.72
537.232	43.79
537.43	43.94
537.627	43.88
537.825	43.87
538.023	43.82
538.22	43.95
538.418	43.87
538.616	44.08
538.813	44.33
539.011	44.52
539.209	44.62
539.406	44.56
539.604	44.6
539.801	44.69
539.999	44.86
540.196	44.79
540.394	44.62
540.591	44.71
540.789	44.7
540.986	44.59
541.184	44.63
541.381	44.8
541.579	44.84
541.776	44.78
541.974	44.93
542.171	44.89
542.368	44.99
542.566	45.02
542.763	44.95
542.96	44.89
543.158	44.86
543.355	44.71
543.552	44.5
543.75	44.61
543.947	44.57
544.144	44.36
544.341	44.26
544.539	44.09
544.736	43.95
544.933	44.01
545.13	44.13
545.327	44.16
545.524	44.13
545.722	44.15
545.919	44.05
546.116	44.3
546.313	44.4
546.51	44.52
546.707	44.68
546.904	44.89
547.101	44.97
547.298	44.85
547.495	44.85
547.692	44.85
547.889	44.86
548.086	44.86
548.283	44.8
548.48	44.75
548.677	44.64
548.874	44.55
549.07	44.64
549.267	44.6
549.464	44.77
549.661	44.71
549.858	44.84
550.055	45.27
550.251	45.59
550.448	45.58
550.645	45.66
550.842	45.85
551.038	45.92
551.235	45.71
551.432	45.6
551.628	45.65
551.825	45.68
552.022	45.57
552.218	45.33
552.415	45.14
552.612	45.11
552.808	45.17
553.005	45.21
553.201	45.37
553.398	45.27
553.594	45.35
553.791	45.34
553.987	45.62
554.184	45.67
554.38	45.6
554.577	45.56
554.773	45.46
554.97	45.14
555.166	45.12
555.362	44.98
555.559	45.23
555.755	45.09
555.952	45.22
556.148	44.67
556.344	44.83
556.541	44.65
556.737	44.72
556.933	44.9
557.129	45.39
557.326	45.48
557.522	45.64
557.718	45.78
557.914	45.9
558.11	45.63
558.307	45.83
558.503	45.88
558.699	46.19
558.895	46.35
559.091	46.33
559.287	46.22
559.483	46.31
559.679	46.33
559.876	46.19
560.072	46.14
560.268	46.23
560.464	46.28
560.66	46.19
560.856	46.34
561.052	46.23
561.247	46.34
561.443	46.39
561.639	46.17
561.835	46.08
562.031	46.05
562.227	46.14
562.423	46.32
562.619	46.37
562.815	46.28
563.01	46.27
563.206	46.15
563.402	46.03
563.598	45.88
563.793	46.17
563.989	46.31
564.185	46.39
564.381	46.47
564.576	46.19
564.772	46.37
564.968	46.53
565.163	46.43
565.359	46.63
565.555	46.88
565.75	47
565.946	46.84
566.141	46.77
566.337	46.96
566.532	47
566.728	47.03
566.923	46.9
567.119	47
567.314	46.96
567.51	46.98
567.705	46.92
567.901	46.91
568.096	46.85
568.292	46.81
568.487	46.91
568.682	46.92
568.878	47.13
569.073	47.46
569.268	47.4
569.464	47.72
569.659	47.9
569.854	47.88
570.05	48.04
570.245	48.02
570.44	48.02
570.635	47.79
570.831	47.72
571.026	47.71
571.221	47.57
571.416	47.53
571.611	47.43
571.806	47.08
572.002	47.08
572.197	46.96
572.392	47.02
572.587	46.96
572.782	47.03
572.977	47.06
573.172	47.03
573.367	46.98
573.562	46.85
573.757	46.8
573.952	46.95
574.147	46.95
574.342	46.89
574.537	47.21
574.732	47.42
574.927	47.43
575.121	47.46
575.316	47.43
575.511	47.41
575.706	47.74
575.901	47.72
576.096	47.85
576.29	47.99
576.485	48.2
576.68	47.87
576.875	47.9
577.069	47.75
577.264	47.74
577.459	47.86
577.654	47.85
577.848	47.66
578.043	47.76
578.238	47.77
578.432	47.72
578.627	47.66
578.821	47.75
579.016	47.8
579.21	48.04
579.405	48.16
579.6	48.12
579.794	48.18
579.989	48.09
580.183	48.3
580.378	48.15
580.572	47.9
580.766	47.92
580.961	47.98
581.155	47.78
581.35	47.77
581.544	47.4
581.738	47.5
581.933	47.6
582.127	47.93
582.321	47.95
582.516	47.96
582.71	48.14
582.904	48.1
583.099	48.04
583.293	48.14
583.487	47.86
583.681	47.87
583.875	47.75
584.07	47.71
584.264	47.66
584.458	47.26
584.652	47.35
584.846	47.24
585.04	47.24
585.234	47.28
585.428	47.18
585.623	47.32
585.817	47.61
586.011	47.76
586.205	47.91
586.399	47.49
586.593	47.83
586.787	47.96
586.981	47.99
587.174	48.06
587.368	48.32
587.562	48.43
587.756	48.42
587.95	48.43
588.144	48.64
588.338	48.56
588.532	48.9
588.725	48.62
588.919	48.66
589.113	48.8
589.307	48.73
589.501	48.79
589.694	48.82
589.888	48.91
590.082	48.95
590.275	48.59
590.469	48.5
590.663	48.34
590.856	48.63
591.05	48.56
591.244	48.67
591.437	48.66
591.631	48.24
591.824	48.33
592.018	48.24
592.212	48.03
592.405	48.37
592.599	48.46
592.792	48.81
592.986	48.48
593.179	48.39
593.372	48.16
593.566	48.4
593.759	48.26
593.953	48.21
594.146	48.38
594.339	48.81
594.533	48.72
594.726	48.92
594.92	48.76
595.113	48.85
595.306	48.86
595.499	49.17
595.693	49.21
595.886	49.7
596.079	49.69
596.272	49.55
596.466	49.32
596.659	49.25
596.852	49.06
597.045	48.92
597.238	49.08
597.431	48.83
597.624	48.5
597.818	48.19
598.011	48.13
598.204	48.21
598.397	48.31
598.59	48.43
598.783	48.43
598.976	48.51
599.169	48.67
599.362	48.47
599.555	48.88
599.748	49
599.941	49.1
600.134	48.84
600.326	48.62
600.519	48.44
600.712	48.05
600.905	47.98
601.098	47.94
601.291	47.68
601.483	47.95
601.676	47.87
601.869	47.82
602.062	48.25
602.255	48.57
602.447	48.7
602.64	48.73
602.833	49.08
603.025	49.15
603.218	49.17
603.411	49.38
603.603	49.15
603.796	49.23
603.989	49.34
604.181	49.04
604.374	48.94
604.566	48.93
604.759	49.05
604.951	49.3
605.144	49.22
605.336	49.28
605.529	49.22
605.721	49.35
605.914	49.29
606.106	49.48
606.299	49.5
606.491	49.45
606.683	49.36
606.876	49.28
607.068	48.87
607.26	49.12
607.453	49.13
607.645	49.18
607.837	49.02
608.03	49.12
608.222	48.69
608.414	48.7
608.606	48.68
608.799	48.93
608.991	48.85
609.183	48.72
609.375	48.31
609.567	47.96
609.759	48.09
609.952	48.21
610.144	48.12
610.336	48.13
610.528	48.01
610.72	47.84
610.912	47.75
611.104	47.66
611.296	47.67
611.488	47.87
611.68	48.05
611.872	48.04
612.064	47.99
612.256	48.13
612.448	48.25
612.64	48.26
612.832	48.47
613.023	48.63
613.215	49.13
613.407	49.6
613.599	49.7
613.791	49.63
613.983	49.45
614.174	49.61
614.366	49.2
614.558	49.05
614.75	49.26
614.941	49.21
615.133	48.56
615.325	48.03
615.516	47.51
615.708	47.59
615.9	47.43
616.091	47.67
616.283	47.63
616.475	47.8
616.666	48.03
616.858	48.31
617.049	48.48
617.241	49.06
617.432	49
617.624	49.17
617.815	48.94
618.007	49.3
618.198	49.05
618.39	49.03
618.581	49.37
618.773	49.47
618.964	49.15
619.155	48.85
619.347	48.65
619.538	48.74
619.729	48.66
619.921	48.61
620.112	48.5
620.303	48.42
620.494	48.41
620.686	48.29
620.877	48.21
621.068	48.33
621.259	48.21
621.451	48.25
621.642	48.54
621.833	48.99
622.024	49.11
622.215	49.03
622.406	48.94
622.597	49.02
622.788	48.82
622.98	48.73
623.171	48.65
623.362	49.19
623.553	49.09
623.744	49.12
623.935	48.99
624.126	49.27
624.317	49.6
624.508	49.92
624.698	49.76
624.889	50.06
625.08	50.31
625.271	50.21
625.462	50.17
625.653	50.02
625.844	49.83
626.034	49.73
626.225	49.55
626.416	49.51
626.607	49.81
626.798	50.01
626.988	49.89
627.179	49.82
627.37	49.84
627.56	50.12
627.751	50.19
627.942	50.1
628.132	49.93
628.323	49.86
628.514	49.77
628.704	49.58
628.895	49.29
629.085	49.13
629.276	48.95
629.466	49.22
629.657	48.68
629.847	49.13
630.038	49.23
630.228	49.28
630.419	49.27
630.609	49.08
630.8	48.83
630.99	48.89
631.181	48.83
631.371	49.01
631.561	49.23
631.752	49.54
631.942	49.22
632.132	49.22
632.323	49.18
632.513	49.11
632.703	49.1
632.893	49.15
633.084	49.36
633.274	49.63
633.464	49.49
633.654	48.83
633.844	48.68
634.034	49.15
634.225	49.11
634.415	49.23
634.605	49.38
634.795	49.79
634.985	49.72
635.175	49.67
635.365	49.45
635.555	49.69
635.745	49.85
635.935	50.04
636.125	49.71
636.315	49.85
636.505	50.07
636.695	50.06
636.885	50.08
637.075	50.09
637.265	49.88
637.455	50.04
637.644	49.73
637.834	50.01
638.024	49.91
638.214	49.67
638.404	49.68
638.593	49.12
638.783	49.33
638.973	48.79
639.163	49.26
639.352	49.01
639.542	48.81
639.732	48.63
639.921	48.36
640.111	48.32
640.301	48.2
640.49	48.25
640.68	48.52
640.87	48.33
641.059	48.39
641.249	48
641.438	48.17
641.628	48.39
641.817	48.5
642.007	48.73
642.196	48.79
642.386	48.82
642.575	48.74
642.764	48.86
642.954	48.93
643.143	49.56
643.333	49.73
643.522	50.09
643.711	49.88
643.901	50.1
644.09	49.78
644.279	49.64
644.469	49.78
644.658	49.43
644.847	49.52
645.036	49.69
645.226	49.1
645.415	48.97
645.604	49.07
645.793	49.09
645.982	48.85
646.171	49.2
646.361	49.51
646.55	49.43
646.739	49.52
646.928	49.7
647.117	49.33
647.306	49.7
647.495	49.47
647.684	49.36
647.873	49.77
648.062	50.06
648.251	50.29
648.44	49.77
648.629	50.12
648.818	50.64
649.007	50.5
649.196	50.38
649.384	50.15
649.573	50.38
649.762	50.38
649.951	50.02
650.14	50.41
650.328	49.7
650.517	49.73
650.706	49.58
650.895	49.46
651.083	49.38
651.272	49.45
651.461	49.67
651.65	49.52
651.838	49.26
652.027	49.25
652.216	48.6
652.404	48.95
652.593	49.29
652.781	49.29
652.97	49.56
653.158	49.5
653.347	49.77
653.535	49.56
653.724	49.68
653.912	49.72
654.101	49.84
654.289	50.03
654.478	49.69
654.666	49.74
654.855	49.66
655.043	48.98
655.231	48.69
655.42	48.42
655.608	48.22
655.796	48.31
655.985	48.49
656.173	48.47
656.361	48.73
656.55	48.76
656.738	48.39
656.926	48.38
657.114	48.79
657.302	49.31
657.491	49.34
657.679	49.4
657.867	49.26
658.055	48.73
658.243	48.74
658.431	48.71
658.619	49.19
658.807	49.3
658.996	49.5
659.184	49.63
659.372	49.06
659.56	49.36
659.748	49.64
659.936	49.62
660.124	50.05
660.311	50.16
660.499	50.26
660.687	50.02
660.875	49.85
661.063	49.68
661.251	49.18
661.439	49.47
661.627	49.24
661.814	49.04
662.002	49.53
662.19	49.73
662.378	49.68
662.565	49.43
662.753	49.78
662.941	49.84
663.129	50.59
663.316	50.95
663.504	51.03
663.692	50.83
663.879	51.44
664.067	51.02
664.254	50.78
664.442	50.51
664.63	50.52
664.817	50.5
665.005	50.86
665.192	50.11
665.38	49.93
665.567	49.43
665.755	49.41
665.942	48.78
666.13	48.46
666.317	48.37
666.504	49
666.692	49.04
666.879	48.59
667.067	48.36
667.254	48.58
667.441	48.78
667.629	49.13
667.816	49.1
668.003	49.16
668.19	49.32
668.378	49.35
668.565	49.3
668.752	49.16
668.939	49.43
669.127	49.51
669.314	49.43
669.501	49.71
669.688	49.8
669.875	50.04
670.062	50.08
670.249	50.36
670.436	50.53
670.623	50.35
670.81	50.4
670.997	50.38
671.184	50.01
671.371	49.71
671.558	48.88
671.745	49.26
671.932	48.99
672.119	48.46
672.306	48.53
672.493	48.48
672.68	48.22
672.867	48.09
673.054	48.28
673.24	48.79
673.427	49.21
673.614	49.45
673.801	48.98
673.988	49.68
674.174	50.37
674.361	49.53
674.548	49.53
674.734	49.53
674.921	50.1
675.108	49.68
675.294	49.79
675.481	49.52
675.668	49.68
675.854	50.18
676.041	49.33
676.227	49.34
676.414	49.79
676.601	49.84
676.787	49.44
676.974	49.13
677.16	49.08
677.347	49.11
677.533	48.79
677.719	49.08
677.906	49.19
678.092	49.63
678.279	49.34
678.465	49.74
678.651	49.88
678.838	50.33
679.024	50.11
679.21	50.19
679.397	49.94
679.583	50.3
679.769	49.95
679.955	49.52
680.142	49.54
680.328	49.51
680.514	49.31
680.7	49.11
680.886	48.75
681.073	49.07
681.259	49.48
681.445	49.46
681.631	49
681.817	48.94
682.003	48.65
682.189	48.18
682.375	48.72
682.561	48.66
682.747	48.5
682.933	49.02
683.119	48.81
683.305	48.35
683.491	48.41
683.677	48.6
683.863	49.11
684.049	49.79
684.235	50.19
684.42	49.7
684.606	49.62
684.792	49.57
684.978	49.56
685.164	49.36
685.349	49.02
685.535	48.38
685.721	48.56
685.907	48.01
686.092	47.96
686.278	48.43
686.464	48.48
686.649	48.75
686.835	48.85
687.021	48.74
687.206	48.83
687.392	49.35
687.577	49.89
687.763	49.84
687.948	49.89
688.134	49.94
688.319	49.46
688.505	49.21
688.69	49
688.876	49.09
689.061	49.31
689.247	49.53
689.432	48.85
689.618	49.12
689.803	48.93
689.988	49.2
690.174	48.77
690.359	48.6
690.544	48.53
690.73	48.47
690.915	48.27
691.1	47.8
691.285	47.73
691.471	48.39
691.656	47.92
691.841	48.37
692.026	48.41
692.211	47.83
692.396	48.04
692.582	48.65
692.767	48.58
692.952	48.41
693.137	49.19
693.322	49.42
693.507	49.48
693.692	49.28
693.877	49.11
694.062	49.65
694.247	50.6
694.432	50.94
694.617	50.74
694.802	50.56
694.987	50.88
695.172	50.29
695.357	50.67
695.541	50.61
695.726	50.77
695.911	50.82
696.096	50.48
696.281	50.36
696.466	49.83
696.65	49.82
696.835	49.65
697.02	49.47
697.204	49.1
697.389	48.36
697.574	47.95
697.759	48.04
697.943	47.88
698.128	47.41
698.312	47.72
698.497	47.88
698.682	48.15
698.866	48.65
699.051	48.46
699.235	48.89
699.42	49.12
699.604	49.4
699.789	49.11
699.973	48.85
700.158	49.04
700.342	48.85
700.527	48.98
700.711	48.21
700.895	48.01
701.08	48.2
701.264	47.82
701.448	47.7
701.633	47.55
701.817	48.04
702.001	48.58
702.186	48.86
702.37	48.76
702.554	48.87
702.738	49.03
702.923	48.85
703.107	48.72
703.291	48.45
703.475	48.93
703.659	48.65
703.843	48.4
704.027	48.45
704.212	48.65
704.396	47.79
704.58	47.58
704.764	47.46
704.948	46.97
705.132	46.86
705.316	47.65
705.5	46.62
705.684	46.89
705.868	46.9
706.052	46.12
706.235	45.5
706.419	46.33
706.603	46.72
706.787	47.56
706.971	48.36
707.155	48.94
707.339	48.59
707.522	48.06
707.706	47.24
707.89	46.8
708.074	47.65
708.257	48.05
708.441	47.76
708.625	47.47
708.808	46.87
708.992	46.27
709.176	46.18
709.359	46.26
709.543	47.46
709.727	48.42
709.91	48
710.094	47.69
710.277	48.09
710.461	48.19
710.644	47.56
710.828	48.11
711.011	48.42
711.195	48.56
711.378	48.43
711.562	48.31
711.745	48.11
711.928	49.13
712.112	48.86
712.295	47.98
712.478	48.08
712.662	48.6
712.845	48.86
713.028	49.56
713.212	48.9
713.395	48.8
713.578	48.78
713.761	48.67
713.945	48.8
714.128	48.97
714.311	49.56
714.494	50.14
714.677	49.59
714.86	49.21
715.043	48.26
715.227	47.74
715.41	46.96
715.593	47.23
715.776	47.66
715.959	47.19
716.142	47.01
716.325	47.05
716.508	46.26
716.691	46.64
716.874	47.63
717.057	48.22
717.239	49.35
717.422	50.47
717.605	50.46
717.788	49.67
717.971	50.08
718.154	51.37
718.337	50.82
718.519	50.86
718.702	51.9
718.885	50.03
719.068	49.44
719.25	50.12
719.433	50.29
719.616	49.69
719.798	50.02
719.981	49.03
720.164	47.72
720.346	47.32
720.529	47.56
720.712	46.56
720.894	47.55
721.077	48.36
721.259	46.71
721.442	46.19
721.624	45.83
721.807	46.62
721.989	47.14
722.172	46.75
722.354	46.51
722.537	46.03
722.719	46.38
722.901	45.62
723.084	45.64
723.266	45.98
723.448	46.3
723.631	46.08
723.813	45.81
723.995	46.15
724.178	46.64
724.36	48.11
724.542	49.18
724.724	48.59
724.907	49.55
725.089	49.05
725.271	49.55
725.453	49.32
725.635	49.45
725.817	48.73
725.999	48.38
726.181	48.95
726.364	48.52
726.546	46.43
726.728	46.81
726.91	46.24
727.092	46.19
727.274	46.66
727.456	46.68
727.638	46.66
727.819	46.33
728.001	47.39
728.183	47.76
728.365	47.68
728.547	48.09
728.729	48.46
728.911	48.79
729.093	48.84
729.274	48.7
729.456	48.29
729.638	48.44
729.82	49.31
730.001	48.94
730.183	47.55
730.365	48.05
730.546	48.84
730.728	48.05
730.91	47.81
731.091	47.91
731.273	46.34
731.455	45.88
731.636	46.93
731.818	46.85
731.999	46.09
732.181	46.53
732.362	46.24
732.544	46.67
732.725	47.25
732.907	46.62
733.088	46.29
733.27	47.65
733.451	47.86
733.633	46.36
733.814	46.15
733.995	46.13
734.177	46.52
734.358	45.64
734.539	46
734.721	45.48
734.902	46.44
735.083	46.19
735.264	46.2
735.446	46.77
735.627	48.41
735.808	48.49
735.989	48.82
736.17	47.74
736.351	47.88
736.533	47
736.714	47.43
736.895	45.8
737.076	46.82
737.257	45.93
737.438	46.05
737.619	45.24
737.8	44.94
737.981	44.19
738.162	45.2
738.343	45.47
738.524	46.02
738.705	45.72
738.886	46.65
739.067	45.78
739.247	45.94
739.428	45.46
739.609	46.22
739.79	46.14
739.971	47.33
740.151	47.05
740.332	47.09
740.513	45.86
740.694	45.99
740.874	45.77
741.055	45.64
741.236	45.22
741.417	46.3
741.597	44.83
741.778	45.5
741.958	45.05
742.139	45.27
742.32	43.85
742.5	43.86
742.681	43.84
742.861	44.3
743.042	44.43
743.222	46.56
743.403	46.61
743.583	46.92
743.764	45.55
743.944	46.02
744.124	44.74
744.305	46.9
744.485	47.61
744.666	47.89
744.846	47.57
745.026	47.47
745.207	46.6
745.387	46.12
745.567	46.77
745.747	47.98
745.928	46.82
746.108	47.14
746.288	46.88
746.468	46.55
746.648	46.65
746.829	46.85
747.009	46.63
747.189	46.85
747.369	47.86
747.549	46.72
747.729	47.64
747.909	47.78
748.089	49.3
748.269	49.77
748.449	49.38
748.629	49.36
748.809	48.63
748.989	49.2
749.169	48.63
749.349	48.1
749.529	48.18
749.709	48.15
749.889	48.51
750.068	46.71
750.248	45.31
750.428	45.03
750.608	44.1
750.788	44.14
750.967	44.44
751.147	44.3
751.327	44.23
751.507	43.63
751.686	42.77
751.866	42.29
752.046	44.29
752.225	44.87
752.405	47.06
752.585	46.27
752.764	47.46
752.944	46.83
753.123	47.39
753.303	46.87
753.482	48.22
753.662	48.1
753.841	49.65
754.021	48.77
754.2	48.77
754.38	47.85
754.559	50.23
754.739	49.35
754.918	50.8
755.097	50.22
755.277	51.05
755.456	50.34
755.635	49.63
755.815	49.94
755.994	49.55
756.173	50.2
756.352	49.38
756.532	48.44
756.711	49.04
756.89	47.75
757.069	49.02
757.248	48.47
757.427	49.61
757.607	49.65
757.786	48.48
757.965	49.33
758.144	48.79
758.323	47.79
758.502	47.31
758.681	47.42
758.86	47.32
759.039	45.49
759.218	45.95
759.397	44.42
759.576	45
759.755	44.19
759.934	43.89
760.113	43.92
760.291	45.81
760.47	45.8
760.649	46.15
760.828	45.99
761.007	46.95
761.186	46.01
761.364	47.15
761.543	46.53
761.722	47.55
761.901	47.75
762.079	48.23
762.258	48.48
762.437	48.31
762.615	48.32
762.794	49
762.972	49.05
763.151	48.97
763.33	49.35
763.508	49.32
763.687	48.79
763.865	49.48
764.044	48.58
764.222	48.5
764.401	48.36
764.579	47.66
764.758	46.33
764.936	45.38
765.114	45.76
765.293	44.94
765.471	44.54
765.65	44.47
765.828	43.29
766.006	43.13
766.184	42.58
766.363	43.82
766.541	43.39
766.719	44.32
766.898	46.05
767.076	46.23
767.254	45.94
767.432	46.69
767.61	47.07
767.788	46.66
767.967	46.85
768.145	47.47
768.323	46.43
768.501	46.45
768.679	44.86
768.857	44.22
769.035	43.8
769.213	44.93
769.391	43.43
769.569	42.34
769.747	43.69
769.925	44.27
770.103	42.59
770.281	44.06
770.459	45.09
770.636	47.32
770.814	46.42
770.992	45.04
771.17	43.55
771.348	45.83
771.525	46.8
771.703	45.28
771.881	44.79
772.059	45.73
772.236	43.85
772.414	43.3
772.592	43.8
772.769	43.02
772.947	43.05
773.125	43.13
773.302	40.65
773.48	39.36
773.657	39.16
773.835	40.6
774.013	41.21
774.19	41.33
774.368	41.77
774.545	40.16
774.723	42.06
774.9	42.86
775.077	44.06
775.255	45.34
775.432	48.97
775.61	45.62
775.787	43.86
775.964	41.27
776.142	39.8
776.319	38.16
776.496	38.89
776.674	39
776.851	40.12
777.028	39.18
777.205	37.93
777.382	36.65
777.56	39.02
777.737	39.34
777.914	39.27
778.091	38.01
778.268	40.29
778.445	40.22
778.622	39.95
778.8	40.24
778.977	42.63
779.154	44.35
779.331	42.4
779.508	44.1
779.685	45.2
779.862	46.51
780.038	48.92
780.215	47.8
780.392	47.17
780.569	45.85
780.746	43.87
780.923	41.79
781.1	41.83
781.277	42.6
781.453	44.35
781.63	44.1
781.807	44.01
781.984	45.69
782.16	47.01
782.337	48.31
782.514	49.27
782.691	51.02
782.867	49.66
783.044	49.75
783.221	51.12
783.397	50.23
783.574	50.5
783.75	50.78
783.927	48.8
784.103	47.44
784.28	46.56
784.456	44.48
784.633	42.27
784.809	43.71
784.986	44.67
785.162	42.54
785.339	40.65
785.515	39.76
785.692	38.83
785.868	38.77
786.044	37.24
786.221	38.12
786.397	42
786.573	44.61
786.749	43.62
786.926	43.69
787.102	45.2
787.278	45.36
787.454	46.29
787.631	46.4
787.807	46.44
787.983	47.9
788.159	45.5
788.335	44.43
788.511	42.22
788.687	43.6
788.863	44.05
789.039	42.61
789.216	44.46
789.392	45.13
789.568	45.52
789.744	46.04
789.919	45.03
790.095	46.26
790.271	45.49
790.447	45.34
790.623	45.48
790.799	43.55
790.975	42.92
791.151	40.82
791.327	40.53
791.502	40.39
791.678	40.95
791.854	37.14
792.03	36.63
792.205	40.28
792.381	40.42
792.557	42.22
792.733	43.32
792.908	45.74
793.084	47.44
793.259	44.69
793.435	44.17
793.611	42.28
793.786	45.7
793.962	44.69
794.137	39.12
794.313	41.97
794.488	38.46
794.664	38.15
794.839	35.61
795.015	34.84
795.19	37.08
795.366	35.51
795.541	33.43
795.716	30.88
795.892	33.05
796.067	35.13
796.242	35.19
796.418	37.72
796.593	38.39
796.768	39.51
796.944	40.5
797.119	39.36
797.294	41.91
797.469	43.52
797.644	48.67
797.82	49.17
797.995	49.53
798.17	46.9
798.345	46.29
798.52	47.26
798.695	46.89
798.87	45.59
799.045	45.74
799.22	44.89
799.395	46.38
799.57	44.11
799.745	42.38
799.92	42.1
800.095	42.85
800.27	40.52
800.445	38
800.62	37.01
800.795	33.76
800.97	32.76
801.145	34.03
801.319	33.41
801.494	33.24
801.669	35.85
801.844	36.31
802.018	37.14
802.193	37.79
802.368	38.24
802.543	40.8
802.717	47.84
802.892	48.29
803.067	45.64
803.241	45
803.416	45
803.59	44.84
803.765	44.32
803.94	43.1
804.114	42.55
804.289	41.35
804.463	42.99
804.638	41.15
804.812	40.23
804.986	37.64
805.161	39.74
805.335	40.1
805.51	39.32
805.684	36.81
805.858	38.11
806.033	42.51
806.207	47.81
806.381	46.26
806.556	46.96
806.73	43.79
806.904	46.78
807.078	45.92
807.253	43.82
807.427	41.09
807.601	42.92
807.775	43.48
807.949	42.45
808.123	38
808.298	38.17
808.472	34.23
808.646	42.24
808.82	41.67
808.994	41.06
809.168	42.02
809.342	43.4
809.516	46.22
809.69	45.99
809.864	43.44
810.038	46.82
810.212	44.74
810.385	46.26
810.559	39.55
810.733	37.92
810.907	34.73
811.081	34.66
811.255	40.81
811.428	33.27
811.602	31.02
811.776	32.1
811.95	28.85
812.123	34.47
812.297	34.03
812.471	37.95
812.644	41.8
812.818	44.86
812.992	44.58
813.165	42.09
813.339	49.64
813.512	49.29
813.686	48.52
813.86	48.62
814.033	43.76
814.207	45.53
814.38	45.55
814.554	42.76
814.727	39.22
814.9	42.56
815.074	39.44
815.247	35.98
815.421	35.01
815.594	36.89
815.767	39.31
815.941	36.82
816.114	35.48
816.287	34.18
816.46	34.65
816.634	40.41
816.807	35.33
816.98	39.71
817.153	40.34
817.327	40.34
817.5	36.92
817.673	35.34
817.846	41.86
818.019	41.02
818.192	37.15
818.365	32.48
818.538	27.51
818.711	24.69
818.884	22.47
819.057	22.21
819.23	29.45
819.403	29.9
819.576	31.31
819.749	30.57
819.922	30.25
820.095	31.24
820.268	36.12
820.441	41.26
820.614	45.67
820.786	46.79
820.959	45.61
821.132	41.54
821.305	43.61
821.477	42.56
821.65	42.41
821.823	43.03
821.996	44.43
822.168	44.16
822.341	44.25
822.514	43.77
822.686	43.17
822.859	44.74
823.031	44.71
823.204	44.11
823.376	43.92
823.549	43.97
823.722	43.68
823.894	43.45
824.067	43.8
824.239	42.87
824.411	43.33
824.584	43.92
824.756	42.6
824.929	43.23
825.101	43.16
825.273	43.42
825.446	42.82
825.618	43.68
825.79	44.56
825.963	44.86
826.135	45.58
826.307	44.87
826.479	44.94
826.652	45.44
826.824	46.93
826.996	46.98
827.168	46.88
827.34	47.24
827.512	47.61
827.684	47.74
827.856	45.8
828.029	44.92
828.201	45.05
828.373	44.59
828.545	44.37
828.717	42.93
828.889	43.07
829.061	43.04
829.232	41.92
829.404	41.36
829.576	39.97
829.748	42.14
829.92	42.35
830.092	42.73
830.264	40.88
830.436	39.76
830.607	38.18
830.779	38.78
830.951	40.15
831.123	40.65
831.294	39.34
831.466	37.94
831.638	36.16
831.809	37.72
831.981	37.41
832.153	40.49
832.324	36.43
832.496	38.03
832.667	35.84
832.839	36.43
833.011	35.46
833.182	34.12
833.354	34.58
833.525	34.72
833.697	34.18
833.868	31.71
834.039	29.07
834.211	31.55
834.382	31.74
834.554	32.91
834.725	30.38
834.896	33.58
835.068	36.06
835.239	36.06
835.41	37.23
835.581	35
835.753	35.11
835.924	36.69
836.095	37.59
836.266	34.84
836.438	32.86
836.609	32.58
836.78	30.52
836.951	29.69
837.122	26.18
837.293	24.68
837.464	28.67
837.635	30.98
837.806	30.1
837.977	29.94
838.148	36.11
838.319	36.59
838.49	42
838.661	41.27
838.832	37.91
839.003	43.33
839.174	37.57
839.345	38.49
839.516	40.26
839.687	44.89
839.857	45.94
840.028	42.16
840.199	44.68
840.37	43.78
840.54	43.87
840.711	44.5
840.882	43.12
841.053	45.83
841.223	37.13
841.394	32.77
841.564	30.43
841.735	30.74
841.906	34.23
842.076	29.89
842.247	25.02
842.417	26.67
842.588	27.46
842.758	29.21
842.929	29.91
843.099	40.06
843.27	39.22
843.44	39.47
843.611	29.37
843.781	29.21
843.951	29.56
844.122	40.34
844.292	35.04
844.462	34.51
844.633	26.71
844.803	24.99
844.973	9.65
845.144	20.23
845.314	26.44
845.484	23.56
845.654	9.18
845.824	1.74
845.995	-7.41
846.165	-23.29
846.335	-14.44
846.505	-8.24
846.675	-2.2
846.845	16.7
847.015	15.01
847.185	13.43
847.355	27
847.525	29.52
847.695	43.65
847.865	45.8
848.035	57.55
848.205	52.08
848.375	48.54
848.545	39.61
848.715	39.52
848.884	37.15
849.054	40.48
849.224	40.16
849.394	41.27
849.564	31.7
849.733	20.47
849.903	18.72
850.073	33.86
850.243	41.18
850.412	44.5
850.582	26.66
850.752	29.3
850.921	20.6
851.091	13.85
851.26	18.4
851.43	15.4
851.599	24.76
851.769	28.84
851.939	28.43
852.108	22.48
852.278	28.47
852.447	52.97
852.616	36.51
852.786	33.07
852.955	29.94
853.125	34.13
853.294	46.15
853.463	43.99
853.633	36.87
853.802	26.62
853.971	37.52
854.141	35.81
854.31	32.8
854.479	50.32
854.648	51.14
854.818	45.9
854.987	41.79
855.156	43.51
855.325	39.52
855.494	32.65
855.663	28.3
855.832	20.39
856.001	22.83
856.171	20.36
856.34	1.11
856.509	8.26
856.678	18
856.847	16.23
857.016	13.87
857.185	14.17
857.353	7.28
857.522	10.35
857.691	10.03
857.86	7.34
858.029	-1.76
858.198	14.09
858.367	9.55
858.535	9.45
858.704	-1.36
858.873	-5.44
859.042	-5.29
859.21	11.24
859.379	10.16
859.548	5.62
859.717	3.36
859.885	14.23
860.054	6.48
860.222	11.24
860.391	14.68
860.56	17.31
860.728	21.63
860.897	23.46
861.065	12.16
861.234	9.48
861.402	17.28
861.571	9.1
861.739	-5.11
861.908	2.97
862.076	4.66
862.244	5.37
862.413	18.47
862.581	23.96
862.749	18.45
862.918	34.3
863.086	32.45
863.254	35.5
863.423	43.26
863.591	46.03
863.759	35.17
863.927	29.75
864.096	20.95
864.264	0.84
864.432	-2.35
864.6	-0.65
864.768	-7.12
864.936	-2.35
865.104	-8.57
865.272	-28.74
865.44	-23.09
865.608	-18.79
865.776	-19.39
865.944	-17.87
866.112	-0.5
866.28	2.98
866.448	4.61
866.616	10.77
866.784	7.15
866.952	14.5
867.12	9.59
867.288	-0.11
867.455	2.64
867.623	-6.89
867.791	8.39
867.959	1.34
868.127	-11.34
868.294	-19.54
868.462	-23.83
868.63	-13.87
868.797	-35.38
868.965	-10.23
869.133	-7.16
869.3	-7.41
869.468	6.44
869.636	5.21
869.803	-6.59
869.971	7.47
870.138	6.62
870.306	-9.05
870.473	-10.84
870.641	25.37
870.808	15.96
870.975	25.79
871.143	9.22
871.31	-15.55
871.478	-11.55
871.645	4.1
871.812	0.58
871.98	12.88
872.147	9.32
872.314	-7.97
872.482	-23.49
872.649	-35.55
872.816	-43.48
872.983	-19.57
873.15	-19.64
873.318	-34.95
873.485	-18.7
873.652	-20.07
873.819	-16.81
873.986	14.32
874.153	46.14
874.32	50.45
874.487	56.95
874.654	54.96
874.821	52.18
874.988	59.51
875.155	47.47
875.322	42.92
875.489	38.96
875.656	45.75
875.823	44.38
875.99	46.29
876.157	34.31
876.324	18.38
876.49	23.02
876.657	20.11
876.824	40.86
876.991	40.5
877.157	54.91
877.324	65.98
877.491	62.16
877.658	61.03
877.824	55.05
877.991	54.22
878.157	72.73
878.324	70.07
878.491	58.62
878.657	48.24
878.824	46.25
878.99	35.06
879.157	24.36
879.323	25.63
879.49	27.96
879.656	26.94
879.823	32.33
879.989	34.76
880.156	45.84
880.322	69.3
880.488	63.12
880.655	75.19
880.821	69.45
880.987	67.73
881.154	69.83
881.32	51.89
881.486	49.49
881.652	50.96
881.819	43.01
881.985	33.69
882.151	33.19
882.317	38.17
882.483	36.85
882.649	35.49
882.816	33
882.982	30.24
883.148	33.63
883.314	37.33
883.48	39.43
883.646	39.77
883.812	40.63
883.978	40.22
884.144	38.55
884.31	41.88
884.476	41.59
884.642	45.25
884.807	47.54
884.973	48.56
885.139	46.3
885.305	42.63
885.471	43.06
885.637	45.97
885.802	42.52
885.968	41.78
886.134	37.55
886.3	42.06
886.465	37.49
886.631	33.23
886.797	30.15
886.962	31.57
887.128	30.78
887.293	36.9
887.459	29.07
887.625	31.94
887.79	33.15
887.956	41.15
888.121	36.93
888.287	43.21
888.452	47.92
888.618	55.76
888.783	53.95
