Data from LC_241_Reflection_2.txt Node
Date: Thu Nov 19 22:29:45 EST 2015
User: robert
Spectrometer: USB4E03001
Autoset integration time: false
Trigger mode: 4
Integration Time (sec): 1.000000E-1
Scans to average: 15
Electric dark correction enabled: true
Nonlinearity correction enabled: false
Boxcar width: 5
Stray light correction enabled: false
XAxis mode: Wavelengths
Stop averaging: false
Number of Pixels in Spectrum: 3648
>>>>>Begin Spectral Data<<<<<
177.566	43.17
177.785	11.81
178.005	32.77
178.225	57.94
178.445	54.83
178.665	50.43
178.885	37.1
179.105	-380.95
179.324	-412.08
179.544	-231.98
179.764	-101.9
179.984	-45.9
180.204	-25.31
180.423	-68.94
180.643	-64.49
180.863	-4.48
181.083	-28.55
181.302	12.86
181.522	36.64
181.742	66.16
181.961	87.76
182.181	139.44
182.401	217.86
182.621	212.08
182.84	395.56
183.06	244
183.279	215.55
183.499	188.24
183.719	590.39
183.938	2033.33
184.158	-941.26
184.377	-489.96
184.597	95.86
184.816	2556.6
185.036	248.87
185.256	-3289.44
185.475	-118.67
185.695	-8.04
185.914	-18.51
186.134	-17.75
186.353	-8.36
186.572	8.99
186.792	88.81
187.011	-300.4
187.231	-475.13
187.45	-1153.08
187.67	-125.39
187.889	-93.04
188.108	-39.37
188.328	-33.48
188.547	-117.75
188.766	-428.04
188.986	-412.53
189.205	6379.41
189.424	171.31
189.644	136.45
189.863	84
190.082	74.17
190.302	126.54
190.521	107.13
190.74	91.12
190.959	105.18
191.178	62.04
191.398	43.26
191.617	27.28
191.836	108.98
192.055	78.51
192.274	89.63
192.494	93.67
192.713	45.49
192.932	34.59
193.151	56.39
193.37	54.24
193.589	91.36
193.808	116.69
194.027	116.79
194.246	98.34
194.465	101.61
194.685	95.46
194.904	81.62
195.123	68.65
195.342	111.96
195.561	96.16
195.78	82.08
195.999	65.94
196.218	57.4
196.436	43.91
196.655	34.27
196.874	37.83
197.093	57.99
197.312	60.15
197.531	87.81
197.75	106.03
197.969	81.62
198.188	129.82
198.407	75.81
198.625	146.2
198.844	99.71
199.063	3.55
199.282	70.09
199.501	84.87
199.719	123.31
199.938	91.45
200.157	201.75
200.376	73.4
200.594	388.99
200.813	30.24
201.032	347.66
201.251	269.41
201.469	112.03
201.688	122.07
201.907	190.46
202.125	674.72
202.344	139.41
202.563	167.26
202.781	184.07
203	118.74
203.218	95.37
203.437	60.01
203.656	100.87
203.874	84.74
204.093	-27.11
204.311	-3.24
204.53	25.63
204.748	29.24
204.967	32.05
205.185	-19.05
205.404	-37.37
205.622	2.21
205.841	21.92
206.059	-1.1
206.278	11.73
206.496	79.08
206.715	33.45
206.933	-70.03
207.151	28.83
207.37	-47.32
207.588	-88.74
207.806	22.26
208.025	6.45
208.243	-118.48
208.461	-224.35
208.68	-156.83
208.898	-104.35
209.116	-55.55
209.335	20.52
209.553	-396.49
209.771	1687.39
209.989	-125.23
210.208	450.96
210.426	806.81
210.644	-81.06
210.862	-60.05
211.081	-36.99
211.299	-57.55
211.517	-40.03
211.735	-21.03
211.953	-6.66
212.171	-6.9
212.39	7.65
212.608	7.33
212.826	28.18
213.044	-5.03
213.262	-3.95
213.48	-8.66
213.698	0.78
213.916	-1.31
214.134	-20.66
214.352	57.51
214.57	103.99
214.788	299.07
215.006	265.98
215.224	160.93
215.442	78.5
215.66	64.58
215.878	-128.99
216.096	-94.29
216.314	-274.64
216.532	-469.43
216.75	-1113.42
216.968	410.25
217.185	1465.98
217.403	2465.82
217.621	4147.79
217.839	-269.99
218.057	-160.28
218.275	-6.38
218.492	-17.71
218.71	-10.42
218.928	6.48
219.146	-32.26
219.363	15.45
219.581	15.62
219.799	18.44
220.017	8.29
220.234	16.3
220.452	35.25
220.67	19.81
220.887	22.59
221.105	30.33
221.323	16.87
221.54	27.05
221.758	33.63
221.976	26.9
222.193	32.71
222.411	23.8
222.629	31.84
222.846	21.66
223.064	21.57
223.281	17.26
223.499	14.73
223.716	16.69
223.934	13.6
224.151	12.93
224.369	22.02
224.586	14.55
224.804	26.67
225.021	37.83
225.239	41.94
225.456	31.74
225.674	35.57
225.891	37.47
226.108	43.16
226.326	41.36
226.543	42.47
226.76	33.82
226.978	35.23
227.195	30.59
227.413	16.68
227.63	12.34
227.847	13.15
228.064	12.26
228.282	12.32
228.499	11.7
228.716	14.79
228.934	13.18
229.151	14.45
229.368	12.11
229.585	12.95
229.802	9.89
230.02	12.05
230.237	11.96
230.454	11.98
230.671	9.48
230.888	10.26
231.105	4.49
231.323	8.54
231.54	6.63
231.757	6.66
231.974	5.68
232.191	8.87
232.408	6.71
232.625	8.74
232.842	10.51
233.059	14.06
233.276	16.42
233.493	20.95
233.71	17.31
233.927	21.04
234.144	23.44
234.361	18.1
234.578	15.83
234.795	18.04
235.012	17.4
235.229	12.83
235.446	16.07
235.663	9.35
235.879	8.94
236.096	4.44
236.313	-2
236.53	1.05
236.747	5.91
236.964	9.27
237.181	8.18
237.397	9.19
237.614	9.49
237.831	9.93
238.048	11.16
238.264	10.44
238.481	16.88
238.698	19.69
238.915	21.98
239.131	19.52
239.348	18.2
239.565	15.31
239.781	13.55
239.998	13.9
240.215	8.98
240.431	8.63
240.648	11.91
240.865	10.11
241.081	9.42
241.298	9.19
241.514	10.86
241.731	11.94
241.947	11.67
242.164	11.55
242.38	12.86
242.597	14.02
242.814	14.56
243.03	12.32
243.246	13.23
243.463	12.7
243.679	10.51
243.896	9.94
244.112	9.82
244.329	10.13
244.545	10.35
244.762	7.23
244.978	5.88
245.194	5.36
245.411	7.24
245.627	6.67
245.843	7.35
246.06	10.12
246.276	9.44
246.492	9.65
246.709	10.55
246.925	10.11
247.141	10.92
247.357	11.59
247.574	11.72
247.79	11.65
248.006	11.96
248.222	12
248.439	10.8
248.655	11.14
248.871	10.81
249.087	9.35
249.303	9.7
249.519	9.89
249.736	9.25
249.952	8.81
250.168	7.83
250.384	5.76
250.6	5.34
250.816	5.49
251.032	5.29
251.248	6.24
251.464	7.31
251.68	8.29
251.896	7.73
252.112	7.04
252.328	7.92
252.544	8.67
252.76	9.61
252.976	10.68
253.192	10.26
253.408	9.56
253.624	10.93
253.84	10.28
254.056	9.38
254.272	9.99
254.487	10.33
254.703	10.1
254.919	9.18
255.135	10.45
255.351	9.2
255.567	11.16
255.782	11.34
255.998	10.45
256.214	11.39
256.43	9.86
256.646	12.35
256.861	13.86
257.077	12.22
257.293	12.8
257.508	12.36
257.724	13.07
257.94	13.15
258.155	13.65
258.371	13.09
258.587	12.05
258.802	12.23
259.018	11.49
259.234	11.03
259.449	11.17
259.665	10.76
259.88	10.08
260.096	9.98
260.312	9.48
260.527	9.07
260.743	8.5
260.958	8.61
261.174	8.68
261.389	8.11
261.605	8.59
261.82	7.77
262.036	8.03
262.251	8.19
262.466	8.3
262.682	8.98
262.897	9.68
263.113	9.36
263.328	10.31
263.543	10.45
263.759	11.01
263.974	10.99
264.189	13.72
264.405	13.28
264.62	14.71
264.835	13.96
265.051	13.7
265.266	13.78
265.481	14.58
265.696	13.42
265.912	11.98
266.127	11.58
266.342	10.16
266.557	9.2
266.773	8.69
266.988	7.48
267.203	7.26
267.418	7.22
267.633	6.79
267.848	5.99
268.064	6.64
268.279	7.09
268.494	7.29
268.709	6.43
268.924	5.6
269.139	6.99
269.354	7.32
269.569	6.29
269.784	5.14
269.999	5.38
270.214	6.81
270.429	6.14
270.644	6.49
270.859	5.79
271.074	6.34
271.289	7.15
271.504	6.97
271.719	7.69
271.934	8.2
272.149	9.52
272.363	10.08
272.578	9.96
272.793	10.02
273.008	9.64
273.223	10.61
273.438	11.58
273.653	11.2
273.867	10.01
274.082	8.67
274.297	8.27
274.512	7.55
274.726	7.66
274.941	6.97
275.156	6.23
275.371	6.48
275.585	5.49
275.8	4.71
276.015	5.88
276.229	6.83
276.444	9
276.659	9.78
276.873	10.42
277.088	9.56
277.302	9.87
277.517	10.23
277.732	11.42
277.946	11.49
278.161	11.47
278.375	11.19
278.59	11.13
278.804	10.73
279.019	11.83
279.233	11.57
279.448	12.72
279.662	13.54
279.877	13.59
280.091	13.39
280.306	12.67
280.52	12.49
280.735	12.35
280.949	11.75
281.163	11.47
281.378	10.89
281.592	10.96
281.806	10.29
282.021	10.05
282.235	10.84
282.449	10.41
282.664	10.95
282.878	10.74
283.092	10.44
283.307	11.8
283.521	11.05
283.735	11.4
283.949	11.23
284.164	10.66
284.378	9.63
284.592	8.62
284.806	8.89
285.02	8.89
285.234	9.6
285.449	8.91
285.663	8.59
285.877	9.17
286.091	8.38
286.305	7.99
286.519	8.91
286.733	9.52
286.947	10.62
287.161	9.91
287.375	9.73
287.589	8.81
287.803	8.98
288.017	8.88
288.231	9.35
288.445	9.98
288.659	10.41
288.873	9.93
289.087	8.73
289.301	8.08
289.515	8.78
289.729	8.47
289.943	9.5
290.157	10.67
290.371	10.93
290.584	9.21
290.798	9.31
291.012	8.64
291.226	8.11
291.44	10.03
291.654	8.61
291.867	8.41
292.081	8.52
292.295	8.01
292.509	6.22
292.722	6.29
292.936	6.8
293.15	5.92
293.364	7.93
293.577	8.8
293.791	8.17
294.005	10.73
294.218	10.42
294.432	10.71
294.645	10.61
294.859	11.47
295.073	9.92
295.286	10.89
295.5	11.38
295.713	10.43
295.927	9.43
296.14	9.08
296.354	8.11
296.568	9.34
296.781	9.34
296.994	10.12
297.208	10
297.421	10.71
297.635	10.53
297.848	10.72
298.062	11.09
298.275	11.16
298.489	11.3
298.702	11.64
298.915	11.22
299.129	11.84
299.342	10.71
299.555	10.98
299.769	10.87
299.982	10.54
300.195	10.52
300.409	10.55
300.622	10.72
300.835	10.67
301.048	10.45
301.262	10.04
301.475	9.04
301.688	9.14
301.901	8.81
302.115	8.55
302.328	9.18
302.541	8.64
302.754	8.68
302.967	9.76
303.18	9.4
303.393	9.23
303.607	9.57
303.82	9.97
304.033	10.98
304.246	11.72
304.459	12.36
304.672	12.29
304.885	12.79
305.098	11.77
305.311	11.54
305.524	11.24
305.737	11.08
305.95	10.14
306.163	9.44
306.376	8.14
306.589	7.95
306.802	6.89
307.015	6.64
307.228	6.72
307.44	7.13
307.653	6.95
307.866	8.29
308.079	9.25
308.292	9.39
308.505	9.7
308.718	9.8
308.93	9.02
309.143	9.42
309.356	9.18
309.569	8.41
309.781	9.24
309.994	8.62
310.207	7.92
310.42	8.18
310.632	8.12
310.845	8.29
311.058	9.77
311.27	9.01
311.483	8.8
311.696	8.99
311.908	10.27
312.121	8.86
312.333	8.8
312.546	8.41
312.759	8.13
312.971	9.17
313.184	8.6
313.396	7.83
313.609	9.3
313.821	9.96
314.034	10.71
314.246	10.32
314.459	11.18
314.671	12.11
314.884	13.11
315.096	12.45
315.309	11.23
315.521	11.82
315.733	11.7
315.946	12
316.158	12.54
316.371	11.76
316.583	10.96
316.795	10.65
317.008	9.95
317.22	9.41
317.432	10.48
317.644	11.79
317.857	11.38
318.069	10.49
318.281	10.48
318.494	10.81
318.706	10.44
318.918	10.54
319.13	10.63
319.342	10.41
319.555	10.39
319.767	8.88
319.979	7.39
320.191	8.16
320.403	8.68
320.615	8.02
320.827	7.14
321.039	6.8
321.252	6.66
321.464	7.47
321.676	7.72
321.888	7.41
322.1	8.47
322.312	8.59
322.524	9.02
322.736	7.68
322.948	8.6
323.16	8.49
323.372	8.38
323.584	8.56
323.796	6.93
324.007	7.04
324.219	7.32
324.431	6.75
324.643	6.67
324.855	6.16
325.067	8.04
325.279	7.37
325.491	7.96
325.702	8.74
325.914	8.16
326.126	9.24
326.338	9.62
326.55	9.45
326.761	9.14
326.973	9.4
327.185	8.87
327.396	8.72
327.608	8.85
327.82	8.61
328.032	8.25
328.243	8.29
328.455	8.68
328.666	8.94
328.878	9.31
329.09	10.41
329.301	11.48
329.513	12.43
329.725	11.56
329.936	11.66
330.148	10.4
330.359	11.03
330.571	12.55
330.782	11.59
330.994	11.48
331.205	12.01
331.417	11.85
331.628	11.37
331.84	11.03
332.051	11.98
332.262	12.73
332.474	13.82
332.685	13.79
332.897	12.63
333.108	12.45
333.319	12.61
333.531	12.09
333.742	11.53
333.953	12.23
334.165	12.92
334.376	12.97
334.587	12.19
334.799	11.77
335.01	10.48
335.221	9.89
335.432	10.85
335.644	10.09
335.855	9.71
336.066	10.26
336.277	8.36
336.488	8.31
336.7	8.03
336.911	7.07
337.122	7.29
337.333	7.79
337.544	8.41
337.755	7.86
337.966	7.61
338.177	8.11
338.388	8.09
338.599	8.83
338.811	8.61
339.022	7.94
339.233	8.03
339.444	7.91
339.655	8.57
339.866	8.47
340.076	8.15
340.287	8.69
340.498	7.76
340.709	7.08
340.92	7.06
341.131	6.58
341.342	7.51
341.553	8.11
341.764	7.32
341.975	6.56
342.185	6.64
342.396	6.44
342.607	6.58
342.818	6.9
343.029	7.48
343.239	7.51
343.45	7.67
343.661	7.01
343.872	7.19
344.082	7.87
344.293	8.74
344.504	8.88
344.714	8.84
344.925	8.45
345.136	8.91
345.346	8.93
345.557	9.18
345.768	9.53
345.978	9.44
346.189	8.78
346.399	8.92
346.61	8.27
346.821	7.8
347.031	8.56
347.242	9.68
347.452	9.99
347.663	9.75
347.873	9.92
348.084	9.22
348.294	9.46
348.504	10.18
348.715	9.95
348.925	10.34
349.136	11.61
349.346	11.18
349.557	10.62
349.767	10.27
349.977	10.54
350.188	9.73
350.398	9.35
350.608	9.46
350.819	9.56
351.029	9.85
351.239	9.93
351.449	8.88
351.66	8.76
351.87	8.17
352.08	8.19
352.29	8.59
352.501	9.09
352.711	9.93
352.921	10.38
353.131	9.53
353.341	8.91
353.552	9.2
353.762	9.19
353.972	9.44
354.182	9.74
354.392	9.9
354.602	9.15
354.812	8.41
355.022	8.22
355.232	7.91
355.442	8.58
355.652	8.48
355.862	8.11
356.072	8.54
356.282	9.39
356.492	9.11
356.702	9.07
356.912	9.48
357.122	10.11
357.332	10.37
357.542	9.62
357.752	9.2
357.962	10.03
358.171	9.84
358.381	9.99
358.591	8.7
358.801	8.68
359.011	8.32
359.221	8.05
359.43	7.8
359.64	7.68
359.85	8.14
360.06	8.36
360.269	7.99
360.479	8.1
360.689	7.42
360.899	7.43
361.108	7.57
361.318	7.61
361.528	7.59
361.737	8.09
361.947	7.85
362.156	7.73
362.366	7.88
362.576	7.86
362.785	7.35
362.995	7.33
363.204	7.71
363.414	7.45
363.623	7.22
363.833	7.08
364.042	6.26
364.252	6.32
364.461	6.04
364.671	6.03
364.88	6.4
365.09	6.94
365.299	7.42
365.509	7.49
365.718	7.71
365.927	8.54
366.137	8.37
366.346	8.5
366.555	8.43
366.765	8.8
366.974	8.39
367.183	7.67
367.393	7.06
367.602	7.02
367.811	7.7
368.021	8.03
368.23	6.8
368.439	6.89
368.648	7.11
368.857	7.27
369.067	6.9
369.276	7.69
369.485	7.56
369.694	7.65
369.903	7.15
370.112	5.99
370.321	5.57
370.531	6.27
370.74	6.27
370.949	5.98
371.158	6.05
371.367	6.58
371.576	5.85
371.785	6.31
371.994	6.99
372.203	6.98
372.412	7.64
372.621	7.51
372.83	7.62
373.039	7.34
373.248	8
373.457	7.94
373.666	7.77
373.874	8.09
374.083	7.7
374.292	7.45
374.501	7.9
374.71	7.46
374.919	7.54
375.128	7.55
375.336	7.84
375.545	7.47
375.754	7.03
375.963	6.86
376.171	6.6
376.38	6.9
376.589	6.67
376.798	6.05
377.006	5.8
377.215	5.84
377.424	5.62
377.632	5.74
377.841	5.61
378.05	5.78
378.258	5.74
378.467	6
378.675	5.75
378.884	5.72
379.093	6.37
379.301	6.86
379.51	6.98
379.718	6.94
379.927	6.48
380.135	6.4
380.344	6.5
380.552	6.74
380.761	6.25
380.969	6.86
381.177	6.77
381.386	7.02
381.594	6.66
381.803	6.23
382.011	6.28
382.219	6.71
382.428	6.73
382.636	6.72
382.845	6.67
383.053	6.65
383.261	6.19
383.469	6.68
383.678	5.84
383.886	6.14
384.094	6.65
384.302	7.08
384.511	6.82
384.719	6.77
384.927	6.67
385.135	6.54
385.343	6.54
385.552	6.5
385.76	6.26
385.968	6.66
386.176	6.25
386.384	5.72
386.592	5.28
386.8	5.21
387.008	5.08
387.216	4.71
387.424	4.82
387.633	5
387.841	4.84
388.049	4.91
388.257	4.93
388.465	5.12
388.672	5.64
388.88	5.65
389.088	5.66
389.296	5.81
389.504	6.33
389.712	6.26
389.92	6.37
390.128	6.43
390.336	6.23
390.544	6.13
390.751	6.19
390.959	5.84
391.167	5.77
391.375	5.87
391.583	5.52
391.79	5.37
391.998	5.38
392.206	5.42
392.414	5.74
392.621	5.7
392.829	5.77
393.037	5.89
393.244	5.85
393.452	5.74
393.66	5.78
393.867	6.17
394.075	6.3
394.283	5.93
394.49	5.8
394.698	5.5
394.905	5.55
395.113	5.53
395.32	5.22
395.528	5.53
395.735	5.98
395.943	5.82
396.15	5.48
396.358	5.32
396.565	5.9
396.773	5.64
396.98	5.67
397.188	5.63
397.395	5.65
397.602	5.49
397.81	5.08
398.017	4.55
398.225	4.5
398.432	4.57
398.639	4.49
398.847	4.18
399.054	4.36
399.261	4.29
399.468	4.4
399.676	3.99
399.883	4.31
400.09	4.49
400.297	4.84
400.505	5.03
400.712	5.31
400.919	5.55
401.126	5.76
401.333	5.8
401.54	5.69
401.748	5.95
401.955	6.26
402.162	6.24
402.369	6.35
402.576	6.06
402.783	6.18
402.99	6.18
403.197	6.1
403.404	6.11
403.611	6.06
403.818	6.28
404.025	5.92
404.232	5.68
404.439	5.69
404.646	5.54
404.853	5.64
405.06	5.43
405.267	5.43
405.474	5.31
405.681	5.13
405.887	5.26
406.094	5.01
406.301	5.03
406.508	5.37
406.715	5.19
406.922	5.02
407.128	4.85
407.335	5.03
407.542	5.18
407.749	5.23
407.955	5.39
408.162	5.3
408.369	5.38
408.575	5.43
408.782	5.13
408.989	5.19
409.195	5.3
409.402	5.55
409.609	5.34
409.815	5
410.022	5.05
410.228	5.23
410.435	5.3
410.642	5.45
410.848	5.51
411.055	5.78
411.261	5.77
411.468	5.93
411.674	5.86
411.881	6.07
412.087	6.07
412.294	5.91
412.5	5.33
412.706	5.17
412.913	5.11
413.119	4.97
413.326	4.75
413.532	5.06
413.738	4.88
413.945	4.85
414.151	5.05
414.357	5.47
414.564	5.43
414.77	5.81
414.976	5.91
415.182	5.78
415.389	5.72
415.595	5.71
415.801	5.45
416.007	5.49
416.214	5.41
416.42	5.35
416.626	5.14
416.832	5.37
417.038	5.36
417.244	5.43
417.45	5.54
417.657	5.57
417.863	5.65
418.069	5.72
418.275	5.86
418.481	5.93
418.687	5.74
418.893	5.8
419.099	5.63
419.305	5.66
419.511	5.52
419.717	5.48
419.923	5.5
420.129	5.48
420.335	5.38
420.541	5.33
420.746	5.33
420.952	5.46
421.158	5.37
421.364	5.38
421.57	5.27
421.776	5.45
421.982	5.38
422.187	5.4
422.393	5.3
422.599	5.29
422.805	5.17
423.01	5.13
423.216	4.99
423.422	4.89
423.628	4.92
423.833	4.94
424.039	4.77
424.245	4.88
424.45	4.93
424.656	4.98
424.862	5.02
425.067	5.01
425.273	5.07
425.478	5.09
425.684	5.23
425.889	5.39
426.095	5.37
426.301	5.37
426.506	5.44
426.712	5.35
426.917	5.61
427.123	5.69
427.328	5.75
427.533	5.76
427.739	5.91
427.944	5.86
428.15	5.68
428.355	5.63
428.561	5.61
428.766	5.55
428.971	5.61
429.177	5.26
429.382	5.19
429.587	5.3
429.793	5.1
429.998	4.83
430.203	4.84
430.408	4.8
430.614	4.98
430.819	4.94
431.024	4.81
431.229	4.71
431.434	4.67
431.64	4.63
431.845	4.61
432.05	4.84
432.255	4.9
432.46	4.96
432.665	5.11
432.87	5.12
433.076	5.27
433.281	5.25
433.486	5.42
433.691	5.47
433.896	5.44
434.101	5.45
434.306	5.38
434.511	5.4
434.716	5.38
434.921	5.35
435.126	5.27
435.331	5.19
435.535	5.21
435.74	5.02
435.945	5.18
436.15	5.09
436.355	5.2
436.56	5.25
436.765	5.38
436.97	5.35
437.174	5.24
437.379	5.16
437.584	5.15
437.789	5.27
437.993	5.31
438.198	5.18
438.403	5.31
438.608	5.32
438.812	5.21
439.017	5.11
439.222	5.14
439.426	5.08
439.631	5.13
439.836	5.28
440.04	5.26
440.245	5.3
440.45	5.27
440.654	5.32
440.859	5.16
441.063	5.31
441.268	5.41
441.472	5.37
441.677	5.39
441.881	5.52
442.086	5.22
442.29	5.18
442.495	5.25
442.699	5.39
442.904	5.43
443.108	5.49
443.312	5.39
443.517	5.14
443.721	5.32
443.925	5.44
444.13	5.36
444.334	5.6
444.538	5.69
444.743	5.64
444.947	5.53
445.151	5.43
445.356	5.45
445.56	5.47
445.764	5.61
445.968	5.53
446.173	5.5
446.377	5.48
446.581	5.51
446.785	5.47
446.989	5.4
447.193	5.35
447.398	5.19
447.602	5.14
447.806	5.15
448.01	4.98
448.214	4.85
448.418	4.81
448.622	4.73
448.826	4.67
449.03	4.72
449.234	4.67
449.438	4.64
449.642	4.76
449.846	4.82
450.05	4.86
450.254	5.01
450.458	5.04
450.662	5.1
450.866	5.06
451.069	4.97
451.273	4.84
451.477	4.83
451.681	4.9
451.885	4.92
452.089	4.9
452.292	4.78
452.496	4.8
452.7	4.81
452.904	4.58
453.107	4.74
453.311	4.85
453.515	4.86
453.719	5
453.922	5.11
454.126	5.19
454.33	5.25
454.533	5.24
454.737	5.15
454.94	5.12
455.144	5.31
455.348	5.3
455.551	5.26
455.755	5.16
455.958	5.03
456.162	4.98
456.365	5.05
456.569	4.92
456.772	5.01
456.976	5.3
457.179	5.43
457.383	5.32
457.586	5.24
457.79	5.21
457.993	5.23
458.196	5.23
458.4	5.31
458.603	5.19
458.807	5.27
459.01	5.12
459.213	4.99
459.417	5
459.62	5.02
459.823	5.05
460.026	4.95
460.23	4.97
460.433	5.01
460.636	4.96
460.839	4.99
461.042	4.95
461.246	5.02
461.449	5.01
461.652	5
461.855	5.1
462.058	5.12
462.261	5.31
462.464	5.36
462.668	5.34
462.871	5.31
463.074	5.28
463.277	5.19
463.48	5.19
463.683	5.32
463.886	5.4
464.089	5.12
464.292	5.21
464.495	5.26
464.698	5.07
464.901	5.14
465.104	5.17
465.306	5.23
465.509	5.33
465.712	5.36
465.915	5.19
466.118	5.05
466.321	5.28
466.524	5.06
466.726	4.92
466.929	5.08
467.132	5.09
467.335	5.1
467.538	4.98
467.74	4.91
467.943	4.85
468.146	4.96
468.348	4.95
468.551	4.86
468.754	4.94
468.956	4.99
469.159	4.94
469.362	4.85
469.564	4.71
469.767	5
469.969	5.07
470.172	5.08
470.375	5.07
470.577	5.17
470.78	5.27
470.982	5.3
471.185	5.35
471.387	5.37
471.59	5.46
471.792	5.6
471.995	5.45
472.197	5.45
472.399	5.5
472.602	5.48
472.804	5.27
473.007	5.24
473.209	5.16
473.411	5.09
473.614	5.12
473.816	5.21
474.018	5.23
474.22	5.18
474.423	5.32
474.625	5.22
474.827	5.21
475.03	5.38
475.232	5.36
475.434	5.6
475.636	5.58
475.838	5.62
476.04	5.46
476.243	5.4
476.445	5.38
476.647	5.29
476.849	5.28
477.051	5.25
477.253	5.3
477.455	5.33
477.657	5.28
477.859	5.34
478.061	5.2
478.263	5.21
478.465	5.02
478.667	5.08
478.869	5.18
479.071	5.14
479.273	5.12
479.475	4.95
479.677	4.97
479.879	4.93
480.081	4.93
480.283	5.02
480.485	5
480.686	5.11
480.888	5.1
481.09	5.01
481.292	5.13
481.494	5.1
481.695	5.16
481.897	5.1
482.099	5
482.301	4.97
482.502	4.99
482.704	4.98
482.906	5
483.107	5
483.309	5
483.511	4.96
483.712	4.95
483.914	4.98
484.115	4.96
484.317	5.01
484.519	5.03
484.72	5.06
484.922	5.06
485.123	5.05
485.325	5.06
485.526	5.06
485.728	5.09
485.929	5.18
486.131	5.1
486.332	5.13
486.534	5.14
486.735	5.15
486.936	5.11
487.138	5.11
487.339	5.1
487.541	5.14
487.742	5.11
487.943	5.13
488.144	5.08
488.346	5.17
488.547	5.22
488.748	5.25
488.95	5.24
489.151	5.23
489.352	5.24
489.553	5.36
489.755	5.26
489.956	5.36
490.157	5.3
490.358	5.26
490.559	5.21
490.76	5.15
490.961	5.1
491.163	5.1
491.364	5.11
491.565	5.16
491.766	5.11
491.967	5.14
492.168	5.07
492.369	5.16
492.57	5.19
492.771	5.19
492.972	5.15
493.173	5.17
493.374	5.22
493.575	5.29
493.776	5.17
493.976	5.12
494.177	5.06
494.378	5.09
494.579	5.04
494.78	4.94
494.981	4.91
495.182	4.9
495.382	4.85
495.583	4.7
495.784	4.61
495.985	4.8
496.185	4.74
496.386	4.8
496.587	4.9
496.788	4.84
496.988	5.08
497.189	5.06
497.39	5.21
497.59	5.36
497.791	5.43
497.992	5.4
498.192	5.35
498.393	5.5
498.593	5.55
498.794	5.59
498.994	5.7
499.195	5.66
499.395	5.73
499.596	5.64
499.796	5.54
499.997	5.54
500.197	5.51
500.398	5.64
500.598	5.5
500.799	5.52
500.999	5.36
501.199	5.33
501.4	5.31
501.6	5.27
501.801	5.3
502.001	5.13
502.201	5.09
502.402	5.25
502.602	5.17
502.802	5.34
503.002	5.44
503.203	5.45
503.403	5.55
503.603	5.52
503.803	5.72
504.003	5.8
504.204	6.03
504.404	6.12
504.604	6.14
504.804	6.29
505.004	6.25
505.204	6.17
505.404	6.18
505.604	6.18
505.804	6.29
506.005	6.21
506.205	6.21
506.405	6.15
506.605	6.21
506.805	6.21
507.005	6.04
507.204	6.01
507.404	5.96
507.604	6.04
507.804	5.98
508.004	6.01
508.204	6.14
508.404	6.14
508.604	6.19
508.804	6.22
509.003	6.28
509.203	6.27
509.403	6.3
509.603	6.36
509.803	6.44
510.002	6.35
510.202	6.21
510.402	6.09
510.602	6.13
510.801	6.13
511.001	6.11
511.201	6
511.4	6.12
511.6	6.3
511.8	6.42
511.999	6.29
512.199	6.55
512.398	6.59
512.598	6.76
512.797	6.86
512.997	6.81
513.197	6.93
513.396	6.99
513.596	6.95
513.795	6.8
513.994	6.74
514.194	7.01
514.393	6.91
514.593	7.08
514.792	7.1
514.992	7.02
515.191	7.2
515.39	7.16
515.59	7.36
515.789	7.39
515.988	7.48
516.188	7.59
516.387	7.56
516.586	7.69
516.786	7.69
516.985	7.63
517.184	7.69
517.383	7.61
517.582	7.57
517.782	7.41
517.981	7.5
518.18	7.4
518.379	7.43
518.578	7.4
518.777	7.34
518.976	7.36
519.176	7.37
519.375	7.47
519.574	7.5
519.773	7.52
519.972	7.66
520.171	7.62
520.37	7.72
520.569	7.72
520.768	7.83
520.967	7.79
521.166	7.66
521.365	7.84
521.564	7.7
521.762	7.68
521.961	7.78
522.16	7.75
522.359	7.89
522.558	7.98
522.757	7.92
522.956	7.95
523.154	8.05
523.353	8.22
523.552	8.06
523.751	8.12
523.949	8.32
524.148	8.32
524.347	8.41
524.546	8.44
524.744	8.42
524.943	8.6
525.142	8.53
525.34	8.5
525.539	8.52
525.737	8.58
525.936	8.63
526.135	8.63
526.333	8.71
526.532	8.69
526.73	8.7
526.929	8.71
527.127	8.65
527.326	8.62
527.524	8.69
527.723	8.7
527.921	8.72
528.12	8.74
528.318	8.73
528.516	8.73
528.715	8.74
528.913	8.74
529.112	8.76
529.31	8.74
529.508	8.82
529.707	8.82
529.905	8.9
530.103	8.94
530.301	8.9
530.5	8.95
530.698	8.97
530.896	9.03
531.094	9.11
531.293	9.17
531.491	9.29
531.689	9.29
531.887	9.44
532.085	9.42
532.283	9.4
532.481	9.44
532.68	9.43
532.878	9.46
533.076	9.47
533.274	9.45
533.472	9.4
533.67	9.42
533.868	9.45
534.066	9.4
534.264	9.4
534.462	9.5
534.66	9.67
534.858	9.65
535.056	9.7
535.253	9.67
535.451	9.72
535.649	9.86
535.847	9.87
536.045	9.9
536.243	10
536.441	10.12
536.638	10.13
536.836	10.06
537.034	10.17
537.232	10.25
537.43	10.36
537.627	10.4
537.825	10.48
538.023	10.53
538.22	10.61
538.418	10.53
538.616	10.41
538.813	10.43
539.011	10.55
539.209	10.62
539.406	10.65
539.604	10.64
539.801	10.83
539.999	10.82
540.196	10.86
540.394	10.96
540.591	11.07
540.789	11.12
540.986	11.14
541.184	11.09
541.381	11.11
541.579	11.13
541.776	11.21
541.974	11.18
542.171	11.17
542.368	11.24
542.566	11.23
542.763	11.21
542.96	11.25
543.158	11.33
543.355	11.32
543.552	11.41
543.75	11.42
543.947	11.48
544.144	11.39
544.341	11.58
544.539	11.55
544.736	11.6
544.933	11.67
545.13	11.74
545.327	11.65
545.524	11.79
545.722	11.77
545.919	11.85
546.116	11.82
546.313	11.92
546.51	11.81
546.707	12.03
546.904	11.98
547.101	12.24
547.298	12.33
547.495	12.53
547.692	12.68
547.889	12.7
548.086	12.75
548.283	12.93
548.48	13.2
548.677	13.32
548.874	13.35
549.07	13.57
549.267	13.31
549.464	13.65
549.661	13.56
549.858	13.71
550.055	13.79
550.251	13.77
550.448	13.56
550.645	13.57
550.842	13.65
551.038	13.51
551.235	13.63
551.432	13.87
551.628	13.54
551.825	13.74
552.022	13.63
552.218	13.68
552.415	13.78
552.612	13.88
552.808	13.89
553.005	13.94
553.201	14.03
553.398	14.19
553.594	14.21
553.791	14.22
553.987	14.33
554.184	14.35
554.38	14.43
554.577	14.54
554.773	14.75
554.97	14.79
555.166	14.83
555.362	14.9
555.559	14.77
555.755	14.69
555.952	14.86
556.148	14.8
556.344	14.89
556.541	14.89
556.737	14.88
556.933	14.9
557.129	14.82
557.326	14.87
557.522	14.95
557.718	14.98
557.914	15.19
558.11	14.99
558.307	15.19
558.503	15.22
558.699	15.3
558.895	15.23
559.091	15.28
559.287	15.25
559.483	15.32
559.679	15.38
559.876	15.41
560.072	15.4
560.268	15.62
560.464	15.55
560.66	15.79
560.856	15.97
561.052	16
561.247	16.17
561.443	16.34
561.639	16.47
561.835	16.67
562.031	16.76
562.227	16.84
562.423	17.04
562.619	17.26
562.815	17.2
563.01	17.16
563.206	17.42
563.402	17.3
563.598	17.47
563.793	17.61
563.989	17.61
564.185	17.69
564.381	17.87
564.576	18.04
564.772	18.18
564.968	18.19
565.163	18.34
565.359	18.46
565.555	18.65
565.75	18.79
565.946	18.79
566.141	18.8
566.337	18.85
566.532	18.88
566.728	18.85
566.923	18.86
567.119	18.97
567.314	18.91
567.51	18.92
567.705	18.97
567.901	18.8
568.096	18.96
568.292	18.92
568.487	18.95
568.682	19.09
568.878	19.1
569.073	19.14
569.268	19.21
569.464	19.42
569.659	19.46
569.854	19.49
570.05	19.72
570.245	19.67
570.44	20.04
570.635	20.1
570.831	20.14
571.026	20.24
571.221	20.22
571.416	20.4
571.611	20.5
571.806	20.55
572.002	20.67
572.197	20.8
572.392	20.81
572.587	20.85
572.782	20.88
572.977	20.94
573.172	21.04
573.367	21.14
573.562	21.26
573.757	21.35
573.952	21.46
574.147	21.48
574.342	21.54
574.537	21.58
574.732	21.62
574.927	21.73
575.121	21.75
575.316	21.89
575.511	21.82
575.706	21.69
575.901	21.61
576.096	21.64
576.29	21.68
576.485	21.77
576.68	21.8
576.875	21.79
577.069	21.82
577.264	21.89
577.459	21.82
577.654	22.07
577.848	22.08
578.043	22.25
578.238	22.47
578.432	22.38
578.627	22.27
578.821	22.67
579.016	22.7
579.21	22.86
579.405	22.84
579.6	22.95
579.794	23.01
579.989	23.08
580.183	22.96
580.378	22.93
580.572	23.12
580.766	23.37
580.961	23.22
581.155	23.18
581.35	23.05
581.544	23.25
581.738	23.29
581.933	23.3
582.127	23.35
582.321	23.56
582.516	23.76
582.71	23.92
582.904	23.77
583.099	23.79
583.293	24
583.487	24.08
583.681	24.19
583.875	24.18
584.07	24.26
584.264	24.56
584.458	24.5
584.652	24.36
584.846	24.33
585.04	24.78
585.234	24.96
585.428	24.79
585.623	25.14
585.817	25.06
586.011	25.02
586.205	25.16
586.399	25.15
586.593	25.15
586.787	25.33
586.981	25.57
587.174	25.45
587.368	25.41
587.562	25.57
587.756	25.31
587.95	25.43
588.144	25.51
588.338	25.39
588.532	25.43
588.725	25.56
588.919	25.55
589.113	25.39
589.307	25.26
589.501	25.24
589.694	25.32
589.888	25.61
590.082	25.77
590.275	25.76
590.469	25.62
590.663	25.69
590.856	25.66
591.05	25.63
591.244	25.88
591.437	26.05
591.631	26.19
591.824	26.37
592.018	26.1
592.212	25.82
592.405	25.81
592.599	26.03
592.792	26.02
592.986	26.26
593.179	26.44
593.372	26.61
593.566	26.57
593.759	26.56
593.953	26.56
594.146	26.94
594.339	27.36
594.533	27.33
594.726	27.43
594.92	27.37
595.113	27.28
595.306	27.31
595.499	27
595.693	27.26
595.886	27.23
596.079	27.17
596.272	27.22
596.466	27.05
596.659	27.15
596.852	27.21
597.045	27.24
597.238	27.36
597.431	27.27
597.624	27.23
597.818	27.25
598.011	27.31
598.204	27.39
598.397	27.35
598.59	27.45
598.783	27.48
598.976	27.36
599.169	27.61
599.362	27.33
599.555	27.34
599.748	27.65
599.941	27.4
600.134	27.59
600.326	27.45
600.519	27.39
600.712	27.26
600.905	27.52
601.098	27.81
601.291	27.69
601.483	28.05
601.676	28.35
601.869	28.31
602.062	28.44
602.255	28.38
602.447	28.72
602.64	28.87
602.833	28.9
603.025	29.11
603.218	28.82
603.411	28.81
603.603	28.82
603.796	28.71
603.989	28.65
604.181	28.78
604.374	28.86
604.566	28.64
604.759	28.5
604.951	28.7
605.144	28.59
605.336	28.75
605.529	28.77
605.721	28.62
605.914	28.57
606.106	28.63
606.299	28.62
606.491	28.66
606.683	28.82
606.876	29.02
607.068	28.98
607.26	28.97
607.453	28.98
607.645	29
607.837	29.25
608.03	29.37
608.222	29.6
608.414	29.62
608.606	29.63
608.799	29.58
608.991	29.73
609.183	29.9
609.375	29.84
609.567	29.95
609.759	30
609.952	29.98
610.144	30.02
610.336	30.09
610.528	30.11
610.72	30.19
610.912	30.42
611.104	30.19
611.296	30.02
611.488	30.18
611.68	30.23
611.872	30.2
612.064	30.37
612.256	30.29
612.448	30.32
612.64	30.19
612.832	30.3
613.023	30.07
613.215	30.2
613.407	30.22
613.599	30.03
613.791	29.98
613.983	30
614.174	29.97
614.366	30.01
614.558	29.97
614.75	29.96
614.941	29.94
615.133	30.12
615.325	30.32
615.516	30.49
615.708	30.63
615.9	30.73
616.091	30.69
616.283	30.76
616.475	30.92
616.666	31.13
616.858	31.54
617.049	31.36
617.241	31.29
617.432	31.34
617.624	31.21
617.815	31.48
618.007	31.4
618.198	31.74
618.39	31.71
618.581	31.75
618.773	31.61
618.964	31.42
619.155	31.68
619.347	31.66
619.538	31.56
619.729	31.73
619.921	31.73
620.112	31.84
620.303	31.74
620.494	31.64
620.686	31.61
620.877	31.5
621.068	31.58
621.259	31.63
621.451	31.92
621.642	31.82
621.833	31.87
622.024	31.8
622.215	31.63
622.406	31.46
622.597	31.41
622.788	31.32
622.98	31.3
623.171	31.33
623.362	31.22
623.553	31.27
623.744	31.54
623.935	31.52
624.126	31.8
624.317	32.18
624.508	32.48
624.698	32.83
624.889	32.94
625.08	33.01
625.271	33
625.462	33.13
625.653	32.95
625.844	33.15
626.034	33.14
626.225	32.94
626.416	32.96
626.607	33.28
626.798	33.3
626.988	33.24
627.179	33.31
627.37	33.33
627.56	33.2
627.751	33.38
627.942	33.14
628.132	33.27
628.323	33.36
628.514	33.2
628.704	33.02
628.895	32.8
629.085	32.87
629.276	32.87
629.466	33.12
629.657	33.15
629.847	33.16
630.038	33.39
630.228	33.36
630.419	33.43
630.609	33.66
630.8	33.82
630.99	34.38
631.181	34.52
631.371	34.58
631.561	34.38
631.752	34.67
631.942	34.53
632.132	34.28
632.323	34.21
632.513	34.13
632.703	33.97
632.893	33.56
633.084	33.13
633.274	32.98
633.464	33.33
633.654	33.43
633.844	33.23
634.034	33.13
634.225	33.12
634.415	33.19
634.605	33.15
634.795	33.46
634.985	33.49
635.175	33.58
635.365	33.79
635.555	33.41
635.745	33.4
635.935	33.67
636.125	34.04
636.315	34.16
636.505	34.33
636.695	34.34
636.885	34.13
637.075	34.37
637.265	34.7
637.455	34.6
637.644	34.93
637.834	35.01
638.024	34.46
638.214	34.52
638.404	34.66
638.593	34.61
638.783	34.83
638.973	34.83
639.163	34.65
639.352	34.26
639.542	34.39
639.732	34.25
639.921	34.01
640.111	34.3
640.301	34.22
640.49	34.25
640.68	33.88
640.87	33.85
641.059	34
641.249	34.03
641.438	34.15
641.628	34.39
641.817	34.64
642.007	34.86
642.196	35.03
642.386	35.04
642.575	35.1
642.764	35.82
642.954	35.73
643.143	35.93
643.333	36.14
643.522	36.13
643.711	36.14
643.901	35.91
644.09	35.94
644.279	36.09
644.469	36.1
644.658	36.12
644.847	35.91
645.036	35.94
645.226	36
645.415	35.87
645.604	35.95
645.793	35.98
645.982	36
646.171	36.13
646.361	36.19
646.55	36.25
646.739	36.32
646.928	36.27
647.117	36.32
647.306	36.26
647.495	36.41
647.684	36.67
647.873	36.82
648.062	37.27
648.251	37.21
648.44	37.17
648.629	37.28
648.818	37.4
649.007	37.62
649.196	37.63
649.384	37.56
649.573	37.43
649.762	37.26
649.951	37.04
650.14	36.68
650.328	36.5
650.517	36.28
650.706	36.33
650.895	36.26
651.083	36.03
651.272	35.71
651.461	35.83
651.65	35.94
651.838	35.75
652.027	35.6
652.216	35.54
652.404	35.83
652.593	35.99
652.781	35.56
652.97	35.23
653.158	35.33
653.347	35.73
653.535	35.4
653.724	35.65
653.912	36.3
654.101	36.81
654.289	36.95
654.478	36.7
654.666	36.8
654.855	37.08
655.043	37.45
655.231	37.33
655.42	37.43
655.608	37.57
655.796	37.53
655.985	37.44
656.173	37.09
656.361	37.15
656.55	37.18
656.738	37.5
656.926	37.49
657.114	37.49
657.302	37.62
657.491	37.7
657.679	37.86
657.867	37.89
658.055	37.69
658.243	38
658.431	38.18
658.619	38.39
658.807	37.98
658.996	38.08
659.184	37.85
659.372	38.17
659.56	38.04
659.748	38.01
659.936	38.27
660.124	38.49
660.311	38.46
660.499	38.13
660.687	38.04
660.875	38.37
661.063	38.5
661.251	38.81
661.439	38.65
661.627	38.95
661.814	38.89
662.002	38.38
662.19	38.2
662.378	38.2
662.565	38.33
662.753	38.26
662.941	38.4
663.129	38.11
663.316	38.11
663.504	37.58
663.692	37.55
663.879	37.9
664.067	37.96
664.254	37.72
664.442	37.85
664.63	37.81
664.817	38.13
665.005	37.94
665.192	38.36
665.38	38.42
665.567	39.27
665.755	39.13
665.942	39.09
666.13	39.66
666.317	39.95
666.504	39.65
666.692	39.87
666.879	39.81
667.067	39.81
667.254	39.82
667.441	39.82
667.629	39.51
667.816	39.63
668.003	39.4
668.19	39.59
668.378	39.58
668.565	40.08
668.752	40.14
668.939	40.26
669.127	40.06
669.314	40.12
669.501	39.75
669.688	39.6
669.875	39.45
670.062	39.62
670.249	39.52
670.436	39.3
670.623	39.15
670.81	39.04
670.997	39.11
671.184	39.16
671.371	39.54
671.558	40.2
671.745	40.69
671.932	41.08
672.119	41.01
672.306	40.86
672.493	40.9
672.68	41.3
672.867	41.49
673.054	41.57
673.24	42.07
673.427	41.86
673.614	41.66
673.801	40.9
673.988	40.57
674.174	41.07
674.361	40.96
674.548	41.05
674.734	40.4
674.921	40.6
675.108	40.49
675.294	40.37
675.481	40.5
675.668	40.1
675.854	40.77
676.041	40.73
676.227	40.87
676.414	41.24
676.601	41.34
676.787	41.68
676.974	41.56
677.16	41.53
677.347	41.5
677.533	41.1
677.719	41.81
677.906	41.82
678.092	41.95
678.279	41.81
678.465	41.62
678.651	41.51
678.838	40.92
679.024	41.26
679.21	41.33
679.397	41.18
679.583	41.72
679.769	41.48
679.955	41.51
680.142	41.67
680.328	41.9
680.514	41.68
680.7	41.73
680.886	42.18
681.073	41.98
681.259	41.99
681.445	41.91
681.631	41.87
681.817	42.04
682.003	42.09
682.189	41.88
682.375	41.54
682.561	41.96
682.747	42.23
682.933	42.26
683.119	42.56
683.305	42.68
683.491	42.99
683.677	42.76
683.863	42.59
684.049	42.86
684.235	42.84
684.42	42.68
684.606	42.69
684.792	42.76
684.978	43
685.164	42.73
685.349	42.89
685.535	43.05
685.721	42.66
685.907	42.95
686.092	43
686.278	43
686.464	43.31
686.649	43.36
686.835	43.14
687.021	42.96
687.206	42.91
687.392	42.62
687.577	42.42
687.763	42.86
687.948	42.67
688.134	42.37
688.319	42.78
688.505	42.71
688.69	42.61
688.876	42.81
689.061	42.13
689.247	42.06
689.432	41.8
689.618	41.45
689.803	41.6
689.988	42.11
690.174	42.12
690.359	41.73
690.544	41.62
690.73	41.67
690.915	41.85
691.1	42.6
691.285	42.57
691.471	43.16
691.656	43.55
691.841	43.34
692.026	42.87
692.211	42.82
692.396	42.99
692.582	42.68
692.767	42.54
692.952	42.42
693.137	42.71
693.322	42.83
693.507	42.65
693.692	42.79
693.877	42.5
694.062	42.58
694.247	42.33
694.432	42.38
694.617	43.12
694.802	43.25
694.987	43.34
695.172	43.27
695.357	43.03
695.541	42.8
695.726	42.93
695.911	43.26
696.096	42.97
696.281	43.27
696.466	43.69
696.65	43.77
696.835	44
697.02	43.77
697.204	43.71
697.389	44.01
697.574	44.39
697.759	44.09
697.943	44.19
698.128	44.49
698.312	44.26
698.497	43.97
698.682	43.99
698.866	44.01
699.051	44.25
699.235	44.26
699.42	44.32
699.604	44.18
699.789	44.09
699.973	43.95
700.158	43.95
700.342	44.06
700.527	44.54
700.711	44.43
700.895	44.73
701.08	44.8
701.264	44.67
701.448	44.47
701.633	44.26
701.817	44.63
702.001	44.57
702.186	44.81
702.37	44.84
702.554	44.16
702.738	44.16
702.923	43.7
703.107	44
703.291	43.96
703.475	44.6
703.659	45.29
703.843	45.34
704.027	45.85
704.212	44.72
704.396	45.65
704.58	46.22
704.764	45.69
704.948	44.8
705.132	44.21
705.316	44.08
705.5	43.86
705.684	43.57
705.868	43.44
706.052	43.28
706.235	44.42
706.419	43.26
706.603	43.22
706.787	44.1
706.971	44.32
707.155	44.86
707.339	45.23
707.522	44.67
707.706	44.21
707.89	44.62
708.074	44.91
708.257	44.44
708.441	45.04
708.625	45.08
708.808	44.46
708.992	45.11
709.176	44.2
709.359	44.82
709.543	45.43
709.727	45.85
709.91	45.3
710.094	45.14
710.277	45.86
710.461	45.61
710.644	45.48
710.828	45.56
711.011	45.68
711.195	46.37
711.378	46.21
711.562	45.83
711.745	45.91
711.928	46.83
712.112	46.14
712.295	45.78
712.478	45.07
712.662	44.93
712.845	44.74
713.028	44.71
713.212	44.26
713.395	44.38
713.578	44.55
713.761	45.04
713.945	44.64
714.128	45.31
714.311	45.64
714.494	46.54
714.677	46.59
714.86	47.17
715.043	47.17
715.227	47.32
715.41	47.13
715.593	47.27
715.776	46.87
715.959	46.99
716.142	47.15
716.325	46.63
716.508	46.79
716.691	46.99
716.874	46.35
717.057	46.59
717.239	47.12
717.422	46.59
717.605	46.75
717.788	46.85
717.971	46.88
718.154	46.77
718.337	47.42
718.519	47.3
718.702	47.01
718.885	47.52
719.068	46.96
719.25	46.87
719.433	47.51
719.616	47.85
719.798	47.89
719.981	47.74
720.164	48.1
720.346	47.74
720.529	46.58
720.712	46.4
720.894	46.6
721.077	46.73
721.259	46.65
721.442	45.76
721.624	45.06
721.807	45.05
721.989	45.13
722.172	45.19
722.354	44.58
722.537	45.83
722.719	47.07
722.901	46.78
723.084	46.38
723.266	46.58
723.448	47.13
723.631	47.99
723.813	47.87
723.995	48.22
724.178	47.82
724.36	48.42
724.542	48.27
724.724	47.41
724.907	47.82
725.089	48.04
725.271	47.65
725.453	47.6
725.635	46.86
725.817	47.26
725.999	46.24
726.181	46.14
726.364	45.62
726.546	45.22
726.728	45.62
726.91	45.64
727.092	44.74
727.274	44.39
727.456	44.65
727.638	44.38
727.819	44.25
728.001	44.88
728.183	44.09
728.365	44.93
728.547	45.64
728.729	45.67
728.911	45.77
729.093	46.75
729.274	47.48
729.456	47.82
729.638	47.73
729.82	47.72
730.001	47.35
730.183	48.15
730.365	47.63
730.546	47.51
730.728	47.26
730.91	46.92
731.091	46.49
731.273	46.12
731.455	45.35
731.636	45.94
731.818	45.93
731.999	46.22
732.181	46.19
732.362	46.69
732.544	46.25
732.725	45.98
732.907	46.06
733.088	46.71
733.27	46.61
733.451	47.33
733.633	48.12
733.814	47.85
733.995	48.08
734.177	48.49
734.358	48.31
734.539	48.64
734.721	49.06
734.902	48.99
735.083	48.93
735.264	49.78
735.446	49.38
735.627	48.6
735.808	49.12
735.989	48.24
736.17	47.86
736.351	47.43
736.533	47.39
736.714	47.83
736.895	47.66
737.076	48.3
737.257	47.89
737.438	48.51
737.619	47.68
737.8	47.07
737.981	47.14
738.162	47.31
738.343	47.49
738.524	48.27
738.705	48.33
738.886	48.59
739.067	47.85
739.247	47.6
739.428	47.28
739.609	47.86
739.79	48.5
739.971	49.44
740.151	49.23
740.332	49.48
740.513	49.49
740.694	48.28
740.874	48.59
741.055	49.2
741.236	49.27
741.417	49.39
741.597	49.23
741.778	48.88
741.958	48.86
742.139	49.12
742.32	49.54
742.5	49.05
742.681	49.37
742.861	49.56
743.042	48.91
743.222	48.51
743.403	48.74
743.583	49.03
743.764	50.23
743.944	50.22
744.124	49.26
744.305	49.09
744.485	49.99
744.666	50.07
744.846	50.05
745.026	50.49
745.207	50.73
745.387	50.02
745.567	50.65
745.747	49.72
745.928	49.84
746.108	50.67
746.288	49.64
746.468	48.51
746.648	48.94
746.829	48.04
747.009	47.82
747.189	47.63
747.369	48.44
747.549	47.74
747.729	47.87
747.909	48.46
748.089	48.97
748.269	49.58
748.449	50.16
748.629	50.55
748.809	51.51
748.989	52.17
749.169	52.11
749.349	51.66
749.529	52.11
749.709	52.25
749.889	51.63
750.068	50.7
750.248	51.74
750.428	51.23
750.608	51.67
750.788	51.18
750.967	50.99
751.147	51.73
751.327	51.23
751.507	50.8
751.686	50.04
751.866	50.78
752.046	51.12
752.225	50.93
752.405	51.58
752.585	49.82
752.764	49.93
752.944	49.47
753.123	49.49
753.303	50.69
753.482	50.27
753.662	51.44
753.841	49.96
754.021	50.25
754.2	49.6
754.38	49.96
754.559	51.13
754.739	51.41
754.918	51.11
755.097	50.5
755.277	50.43
755.456	50.34
755.635	48.91
755.815	49.58
755.994	50.09
756.173	50.31
756.352	49.23
756.532	49.37
756.711	49.49
756.89	50.47
757.069	50.09
757.248	49.26
757.427	49.68
757.607	49.55
757.786	49.97
757.965	49.5
758.144	49.65
758.323	49.3
758.502	48.05
758.681	47.56
758.86	46.81
759.039	47.74
759.218	48.27
759.397	48.01
759.576	48.16
759.755	47.27
759.934	46.11
760.113	46.02
760.291	46.69
760.47	47.69
760.649	48.29
760.828	47.83
761.007	47.88
761.186	47.19
761.364	47.51
761.543	48.88
761.722	49.36
761.901	49.75
762.079	49.16
762.258	48.07
762.437	48.64
762.615	47.56
762.794	48.08
762.972	48.41
763.151	48.69
763.33	48.79
763.508	48.06
763.687	48.19
763.865	48.66
764.044	49.14
764.222	50.01
764.401	49.59
764.579	50.65
764.758	50.45
764.936	50.36
765.114	50.45
765.293	49.6
765.471	49.44
765.65	49.23
765.828	49.53
766.006	49.1
766.184	48.65
766.363	48.13
766.541	47.79
766.719	47.97
766.898	47.63
767.076	47.33
767.254	48.26
767.432	48.9
767.61	49.37
767.788	48.85
767.967	49.69
768.145	50.84
768.323	51.23
768.501	50.54
768.679	49.59
768.857	49.25
769.035	49.69
769.213	50.14
769.391	50.51
769.569	50.17
769.747	50.72
769.925	49.13
770.103	46.79
770.281	47.02
770.459	47.01
770.636	48.86
770.814	50.34
770.992	49.54
771.17	49.08
771.348	48.31
771.525	47.37
771.703	47.61
771.881	48.99
772.059	50.84
772.236	50.11
772.414	52.09
772.592	51.97
772.769	49.54
772.947	49.33
773.125	49.1
773.302	49.29
773.48	49.95
773.657	50.34
773.835	50.69
774.013	50.84
774.19	51.16
774.368	49.89
774.545	48.43
774.723	48.95
774.9	50.4
775.077	50.86
775.255	50.59
775.432	50.43
775.61	50.8
775.787	49.2
775.964	48.3
776.142	49.85
776.319	50.32
776.496	52.02
776.674	54.36
776.851	53.64
777.028	54.03
777.205	54.13
777.382	53.05
777.56	52.44
777.737	52.65
777.914	53.09
778.091	52.29
778.268	50.82
778.445	50.99
778.622	48.96
778.8	50.8
778.977	50.01
779.154	60.14
779.331	62.01
779.508	62.59
779.685	63.54
779.862	64.41
780.038	64.63
780.215	66.28
780.392	65.26
780.569	67.09
780.746	64.78
780.923	65.73
781.1	54.35
781.277	53.08
781.453	51.19
781.63	50.8
781.807	51.35
781.984	51.5
782.16	51.33
782.337	51.22
782.514	50.33
782.691	51.71
782.867	49.89
783.044	49.95
783.221	51.01
783.397	52.21
783.574	52.58
783.75	51.81
783.927	51.61
784.103	51.5
784.28	51.44
784.456	52.17
784.633	51.03
784.809	52.04
784.986	51.88
785.162	51.4
785.339	51.35
785.515	51.93
785.692	50.35
785.868	51.86
786.044	49.24
786.221	48.74
786.397	46.36
786.573	45.57
786.749	45.82
786.926	45.93
787.102	45.11
787.278	45.11
787.454	44.58
787.631	45.99
787.807	43.98
787.983	47.38
788.159	48.2
788.335	50.39
788.511	51.55
788.687	52.77
788.863	52.45
789.039	53.17
789.216	52.24
789.392	52.32
789.568	51.04
789.744	52.6
789.919	53.48
790.095	53.02
790.271	52.52
790.447	53.53
790.623	53.4
790.799	54.37
790.975	53.39
791.151	54.23
791.327	54.86
791.502	54.3
791.678	53.39
791.854	52.24
792.03	52.85
792.205	51.79
792.381	53.31
792.557	53.39
792.733	52.01
792.908	52.81
793.084	53.65
793.259	53.07
793.435	55.87
793.611	56
793.786	54.61
793.962	53.76
794.137	55.25
794.313	53.55
794.488	52.13
794.664	54.04
794.839	54.73
795.015	50.64
795.19	51.17
795.366	51.91
795.541	51.47
795.716	51.91
795.892	53.37
796.067	53.33
796.242	51.79
796.418	52.41
796.593	51.85
796.768	50.11
796.944	52.39
797.119	51.7
797.294	49.91
797.469	49.59
797.644	48.71
797.82	49.18
797.995	48.22
798.17	48.79
798.345	49.75
798.52	49.99
798.695	49.87
798.87	50.54
799.045	50.04
799.22	51.03
799.395	50.87
799.57	52.56
799.745	51.31
799.92	50.92
800.095	51.13
800.27	49.46
800.445	48.97
800.62	50.39
800.795	49.31
800.97	49.62
801.145	48.49
801.319	48.35
801.494	46.17
801.669	47.05
801.844	48.63
802.018	46.64
802.193	47.54
802.368	48.01
802.543	46.6
802.717	46.67
802.892	48.13
803.067	49.36
803.241	50.26
803.416	51.66
803.59	51.34
803.765	50.94
803.94	53
804.114	52.74
804.289	53.92
804.463	56.75
804.638	56.27
804.812	57.88
804.986	57.23
805.161	57.88
805.335	56.53
805.51	56.34
805.684	54.74
805.858	55.02
806.033	54.28
806.207	53.2
806.381	51.86
806.556	52.47
806.73	52.01
806.904	51.99
807.078	51.69
807.253	54.14
807.427	54.47
807.601	56.52
807.775	56.12
807.949	57.54
808.123	56.3
808.298	57.07
808.472	57.29
808.646	55.21
808.82	56.49
808.994	56.58
809.168	56.34
809.342	54.8
809.516	52.9
809.69	51.56
809.864	50.56
810.038	53.03
810.212	51.19
810.385	51.36
810.559	52.39
810.733	50.12
810.907	50
811.081	51.54
811.255	52.75
811.428	54.57
811.602	56.92
811.776	56.48
811.95	56.47
812.123	55.6
812.297	54.89
812.471	55.79
812.644	55.77
812.818	57.76
812.992	54.3
813.165	53.82
813.339	53.4
813.512	53.47
813.686	49.99
813.86	49.1
814.033	49.58
814.207	51.81
814.38	51.92
814.554	48.81
814.727	48.4
814.9	51.21
815.074	52.51
815.247	53.06
815.421	50.89
815.594	51.42
815.767	52.54
815.941	52.64
816.114	51.5
816.287	48.95
816.46	54.06
816.634	54.55
816.807	51.23
816.98	50.43
817.153	50.24
817.327	50.41
817.5	52.57
817.673	51.98
817.846	54.81
818.019	56.07
818.192	57.36
818.365	56.28
818.538	53.86
818.711	53.62
818.884	53
819.057	48.56
819.23	49.34
819.403	49.32
819.576	50.26
819.749	48.18
819.922	45.97
820.095	45.61
820.268	45.64
820.441	45.96
820.614	45.7
820.786	45.56
820.959	47.46
821.132	48.4
821.305	47.58
821.477	46.72
821.65	48.4
821.823	48.25
821.996	49.27
822.168	49.08
822.341	49.27
822.514	49.68
822.686	49.99
822.859	50.17
823.031	50.05
823.204	50.42
823.376	49.87
823.549	49.46
823.722	49.92
823.894	49.27
824.067	49.44
824.239	49.11
824.411	48.98
824.584	48.94
824.756	48.55
824.929	48
825.101	48.13
825.273	48.59
825.446	48.32
825.618	48.03
825.79	48.18
825.963	48.17
826.135	48.4
826.307	47.88
826.479	48.09
826.652	48.06
826.824	48.16
826.996	47.95
827.168	48.15
827.34	48.67
827.512	48.87
827.684	49.4
827.856	49.14
828.029	49.65
828.201	49.87
828.373	49.01
828.545	49.14
828.717	49.58
828.889	49.55
829.061	50.16
829.232	49.21
829.404	50.5
829.576	49.48
829.748	48.9
829.92	48.6
830.092	50.47
830.264	50.21
830.436	50.68
830.607	50.18
830.779	50.47
830.951	50.33
831.123	51.17
831.294	47.77
831.466	49.87
831.638	51.09
831.809	50.91
831.981	48.38
832.153	51.35
832.324	52.92
832.496	53.07
832.667	54.65
832.839	53.88
833.011	53.92
833.182	54.88
833.354	53.6
833.525	53.8
833.697	53.09
833.868	54.58
834.039	54.61
834.211	54.15
834.382	54.34
834.554	54.65
834.725	54.03
834.896	52.59
835.068	50.88
835.239	49.93
835.41	48.81
835.581	49.71
835.753	49.81
835.924	48.21
836.095	46.76
836.266	46.61
836.438	45.23
836.609	47.38
836.78	49.45
836.951	51.53
837.122	51.75
837.293	53
837.464	50.72
837.635	51.12
837.806	52.55
837.977	53.14
838.148	54.22
838.319	53.1
838.49	51.1
838.661	49.68
838.832	50.52
839.003	50.7
839.174	52.2
839.345	55.35
839.516	55.32
839.687	56.93
839.857	56.03
840.028	56.27
840.199	56.48
840.37	54.45
840.54	55.15
840.711	56.98
840.882	58.16
841.053	56.71
841.223	54.22
841.394	51.32
841.564	46.79
841.735	50.9
841.906	53.05
842.076	53.39
842.247	59.08
842.417	62.14
842.588	60.06
842.758	59.98
842.929	58.12
843.099	57.58
843.27	57.7
843.44	56.7
843.611	54.84
843.781	49.53
843.951	50.36
844.122	42.76
844.292	35.44
844.462	33.25
844.633	33.35
844.803	31.21
844.973	29.53
845.144	30.27
845.314	29.08
845.484	25.16
845.654	25.26
845.824	23.84
845.995	27.99
846.165	31.27
846.335	35.46
846.505	28.98
846.675	33.95
846.845	37.89
847.015	34.79
847.185	40.42
847.355	43.73
847.525	53.83
847.695	59.72
847.865	64.53
848.035	58.38
848.205	54.18
848.375	60.98
848.545	59.15
848.715	58.24
848.884	56.91
849.054	53.63
849.224	57.88
849.394	51.65
849.564	47.49
849.733	46.6
849.903	57.29
850.073	60.65
850.243	63.59
850.412	67.47
850.582	71.9
850.752	69.23
850.921	71.13
851.091	71.29
851.26	68.97
851.43	67.68
851.599	68.72
851.769	68.29
851.939	65.23
852.108	59.82
852.278	61.57
852.447	54.64
852.616	60.12
852.786	65.7
852.955	63.63
853.125	62.01
853.294	72.21
853.463	69.53
853.633	61.43
853.802	69.45
853.971	75.66
854.141	76.61
854.31	78.34
854.479	78.79
854.648	55.28
854.818	47.45
854.987	45.19
855.156	33.18
855.325	39.72
855.494	49.74
855.663	43.35
855.832	43.01
856.001	34.83
856.171	32.77
856.34	29.52
856.509	39.8
856.678	39.86
856.847	50.05
857.016	51.67
857.185	40.53
857.353	36.96
857.522	40.99
857.691	39.17
857.86	42.08
858.029	45.91
858.198	48.62
858.367	48.83
858.535	52.07
858.704	46.66
858.873	51.09
859.042	50.36
859.21	50.49
859.379	48.94
859.548	46.78
859.717	42.47
859.885	43.77
860.054	48.46
860.222	51.84
860.391	53.2
860.56	46.97
860.728	44.14
860.897	51.64
861.065	49.16
861.234	41.62
861.402	47.51
861.571	47.55
861.739	47.37
861.908	42.84
862.076	41.34
862.244	46.99
862.413	56.7
862.581	52.52
862.749	52.69
862.918	53.78
863.086	63.8
863.254	56.54
863.423	54.12
863.591	47.63
863.759	50.43
863.927	56.95
864.096	43.79
864.264	42.57
864.432	50.01
864.6	56.06
864.768	60.57
864.936	57.01
865.104	49.34
865.272	58.25
865.44	60.13
865.608	52.63
865.776	45.86
865.944	48.79
866.112	51.14
866.28	61.81
866.448	56.44
866.616	57.03
866.784	48.87
866.952	65.26
867.12	58.01
867.288	65.8
867.455	63.1
867.623	58.23
867.791	58.44
867.959	54.74
868.127	47.97
868.294	43.87
868.462	41.24
868.63	52.09
868.797	48.44
868.965	56.89
869.133	44.49
869.3	59.46
869.468	61.29
869.636	62.8
869.803	56.4
869.971	56.29
870.138	57.59
870.306	65.27
870.473	57.36
870.641	64.89
870.808	60.94
870.975	69.15
871.143	72.73
871.31	74.94
871.478	71.81
871.645	88.15
871.812	83.95
871.98	70.04
872.147	59.57
872.314	64.99
872.482	54.91
872.649	49.13
872.816	52.19
872.983	40.83
873.15	35.96
873.318	33.31
873.485	33.02
873.652	30.32
873.819	37.29
873.986	39.86
874.153	38.82
874.32	38.06
874.487	43.03
874.654	39.28
874.821	29.73
874.988	34.09
875.155	39.22
875.322	38.28
875.489	49.22
875.656	47.7
875.823	38.5
875.99	44.08
876.157	49.02
876.324	51.59
876.49	47.02
876.657	56.79
876.824	61.17
876.991	68.47
877.157	64.72
877.324	60.06
877.491	70.03
877.658	81.47
877.824	82.06
877.991	81.05
878.157	72.91
878.324	88.07
878.491	88.84
878.657	82.12
878.824	73.92
878.99	77.31
879.157	87.1
879.323	77.23
879.49	69.05
879.656	70.91
879.823	67.98
879.989	74.16
880.156	66.62
880.322	70.79
880.488	68.48
880.655	55.29
880.821	57.97
880.987	52.52
881.154	55.65
881.32	62.19
881.486	60.21
881.652	55.2
881.819	51.46
881.985	49.76
882.151	52.28
882.317	51.83
882.483	56.58
882.649	55.22
882.816	53.07
882.982	52.26
883.148	51.07
883.314	51.91
883.48	52.94
883.646	53.16
883.812	55.22
883.978	54.42
884.144	54.74
884.31	54.29
884.476	53.6
884.642	55.1
884.807	53.8
884.973	54.26
885.139	53.92
885.305	53.74
885.471	55.16
885.637	53.4
885.802	50.73
885.968	51.15
886.134	51.11
886.3	52.12
886.465	52.38
886.631	52.69
886.797	53.38
886.962	51.66
887.128	51.64
887.293	50.35
887.459	50.21
887.625	53.57
887.79	51.96
887.956	52.32
888.121	52.93
888.287	49.14
888.452	51.67
888.618	42.13
888.783	44.66
