Data from LC_247_Reflection_2.txt Node
Date: Thu Nov 19 22:52:19 EST 2015
User: robert
Spectrometer: USB4E03001
Autoset integration time: false
Trigger mode: 4
Integration Time (sec): 1.000000E-1
Scans to average: 15
Electric dark correction enabled: true
Nonlinearity correction enabled: false
Boxcar width: 5
Stray light correction enabled: false
XAxis mode: Wavelengths
Stop averaging: false
Number of Pixels in Spectrum: 3648
>>>>>Begin Spectral Data<<<<<
177.566	24.16
177.785	17.55
178.005	35.39
178.225	19.91
178.445	37.24
178.665	39.75
178.885	26.63
179.105	-474.4
179.324	-252.24
179.544	-266.09
179.764	-73.14
179.984	-24.52
180.204	-42.49
180.423	-13.76
180.643	-9.15
180.863	-7.02
181.083	-51.25
181.302	-19.67
181.522	34.92
181.742	57.79
181.961	75.69
182.181	102.11
182.401	123.05
182.621	154.72
182.84	238.84
183.06	192.51
183.279	145.66
183.499	73.42
183.719	48.83
183.938	-891.25
184.158	910.81
184.377	936.13
184.597	-508
184.816	4716.98
185.036	410.58
185.256	-4121.11
185.475	-147.01
185.695	-54.69
185.914	10.08
186.134	96.76
186.353	85.93
186.572	55.48
186.792	188.08
187.011	-931.33
187.231	3.58
187.45	-591.4
187.67	10.85
187.889	11.72
188.108	31.17
188.328	50.36
188.547	66.97
188.766	210.96
188.986	92.08
189.205	-1320.59
189.424	66.12
189.644	161.69
189.863	82.13
190.082	67.67
190.302	62.58
190.521	75.77
190.74	96.29
190.959	86.74
191.178	97.75
191.398	80.1
191.617	68.83
191.836	213.11
192.055	23.82
192.274	33.08
192.494	75.83
192.713	62.5
192.932	50.71
193.151	44.99
193.37	40.09
193.589	45.78
193.808	46.22
194.027	61.59
194.246	33.13
194.465	44.53
194.685	49.56
194.904	66.68
195.123	71.92
195.342	83.62
195.561	90.88
195.78	85.55
195.999	76.32
196.218	81.33
196.436	92.88
196.655	101.61
196.874	92.92
197.093	105.62
197.312	71.44
197.531	121.04
197.75	203.5
197.969	217.85
198.188	-343.41
198.407	-120.93
198.625	-203.68
198.844	-62.31
199.063	-1303.36
199.282	-132.14
199.501	-192.81
199.719	-334.61
199.938	-9.73
200.157	-111.56
200.376	-24.66
200.594	1077.08
200.813	925.17
201.032	705.69
201.251	743.27
201.469	140
201.688	73.89
201.907	114.67
202.125	534.77
202.344	158.59
202.563	69.73
202.781	68.06
203	53.26
203.218	14.32
203.437	-22.8
203.656	5.32
203.874	61.99
204.093	-77.98
204.311	-5.51
204.53	-2.03
204.748	24.53
204.967	59.31
205.185	40.13
205.404	-16.21
205.622	-3.25
205.841	35.31
206.059	11.52
206.278	-1.26
206.496	23.3
206.715	30.54
206.933	11.42
207.151	-13.64
207.37	-65.06
207.588	-41.55
207.806	37.68
208.025	14.33
208.243	-228.37
208.461	-301.96
208.68	-228.15
208.898	-1.18
209.116	-57.09
209.335	-90.83
209.553	-391.3
209.771	880.67
209.989	-11.57
210.208	307.68
210.426	465.97
210.644	50.51
210.862	44.97
211.081	37.56
211.299	-29.54
211.517	2.04
211.735	13.61
211.953	27.74
212.171	20.7
212.39	26.72
212.608	35.24
212.826	47.21
213.044	37.36
213.262	-6.17
213.48	-19.4
213.698	6.92
213.916	1.77
214.134	-21.92
214.352	-62.38
214.57	-143.44
214.788	-33.95
215.006	19.88
215.224	-132.76
215.442	-296.15
215.66	-10.64
215.878	-103.07
216.096	-296.49
216.314	-545.1
216.532	-502.62
216.75	-801.85
216.968	268.17
217.185	1190.72
217.403	1878.78
217.621	4065.06
217.839	-272.48
218.057	-171.69
218.275	-36.48
218.492	-50.41
218.71	-10.95
218.928	-30.59
219.146	-47.83
219.363	-2.5
219.581	-4.05
219.799	13.49
220.017	30.87
220.234	34.02
220.452	49.15
220.67	64.48
220.887	70.75
221.105	68.46
221.323	71.64
221.54	65.41
221.758	70.97
221.976	52.8
222.193	45.08
222.411	40.27
222.629	45.04
222.846	42.24
223.064	40.83
223.281	38.94
223.499	29.76
223.716	30.34
223.934	16.11
224.151	12.66
224.369	22.91
224.586	16.49
224.804	26.66
225.021	22.69
225.239	21.99
225.456	5.42
225.674	1
225.891	13.61
226.108	18.72
226.326	14.59
226.543	12.07
226.76	-14.91
226.978	-7.78
227.195	-7.25
227.413	-5.24
227.63	-4.92
227.847	3.69
228.064	5.06
228.282	7.07
228.499	6.03
228.716	11.37
228.934	10.88
229.151	14.91
229.368	14.79
229.585	14.97
229.802	15.59
230.02	16.65
230.237	17.12
230.454	16.04
230.671	13.4
230.888	15.68
231.105	11.15
231.323	12.24
231.54	8.04
231.757	7.58
231.974	7.95
232.191	8.24
232.408	5.81
232.625	6.74
232.842	12.63
233.059	18.08
233.276	19.55
233.493	21.05
233.71	22.2
233.927	24.43
234.144	22.48
234.361	16.87
234.578	13.38
234.795	14.35
235.012	14.27
235.229	6.46
235.446	8.04
235.663	6.56
235.879	10.12
236.096	4.67
236.313	1.91
236.53	4.3
236.747	4.66
236.964	8.38
237.181	5.33
237.397	0.01
237.614	-0.71
237.831	1.23
238.048	2.4
238.264	-1.97
238.481	2.1
238.698	4.63
238.915	10.3
239.131	11.64
239.348	9.64
239.565	13.12
239.781	16.53
239.998	19.97
240.215	14.53
240.431	12
240.648	14.86
240.865	12.49
241.081	10.9
241.298	11.02
241.514	11.79
241.731	12.33
241.947	12.01
242.164	10.67
242.38	11.09
242.597	10.28
242.814	10.61
243.03	9.63
243.246	11.25
243.463	11.67
243.679	8.38
243.896	8.38
244.112	8.72
244.329	8.91
244.545	9.46
244.762	8.73
244.978	9.62
245.194	7.49
245.411	8.89
245.627	7.76
245.843	8.18
246.06	11.93
246.276	11.39
246.492	10.9
246.709	10.99
246.925	10.58
247.141	10.22
247.357	10.83
247.574	12.17
247.79	11.86
248.006	12.57
248.222	12.58
248.439	11.78
248.655	11.72
248.871	11.62
249.087	10.84
249.303	10.57
249.519	10.16
249.736	9.31
249.952	7.84
250.168	6.5
250.384	4.54
250.6	5.07
250.816	4.76
251.032	3.48
251.248	4.4
251.464	4.37
251.68	5.13
251.896	6.1
252.112	7.54
252.328	8.59
252.544	8.49
252.76	8.35
252.976	8.78
253.192	9.87
253.408	11.67
253.624	11.77
253.84	11.96
254.056	11.42
254.272	10.25
254.487	9.99
254.703	9.06
254.919	9.48
255.135	10.55
255.351	7.12
255.567	7.22
255.782	3.32
255.998	1.72
256.214	4.34
256.43	3.07
256.646	6.37
256.861	7.6
257.077	6.38
257.293	7.99
257.508	9.46
257.724	11.32
257.94	9.82
258.155	11.67
258.371	12.62
258.587	11.11
258.802	11.53
259.018	11.72
259.234	11.32
259.449	11.78
259.665	10.79
259.88	9.85
260.096	9.96
260.312	9.26
260.527	8.52
260.743	8.65
260.958	9.09
261.174	9.26
261.389	8.53
261.605	8.39
261.82	6.97
262.036	7.02
262.251	7.01
262.466	6.87
262.682	7.55
262.897	10.04
263.113	8.8
263.328	8.83
263.543	9.2
263.759	9.8
263.974	10.49
264.189	13.41
264.405	14.28
264.62	15.02
264.835	14.6
265.051	14.6
265.266	12.9
265.481	12.57
265.696	11.94
265.912	10.74
266.127	10.7
266.342	8.58
266.557	7.81
266.773	6.85
266.988	6.86
267.203	6.12
267.418	6.09
267.633	6.11
267.848	6.73
268.064	6.83
268.279	6.86
268.494	6.37
268.709	7.36
268.924	6.26
269.139	7.11
269.354	6.26
269.569	6.73
269.784	6.25
269.999	4.57
270.214	4.9
270.429	5.28
270.644	5.22
270.859	6.13
271.074	5.18
271.289	6.49
271.504	6.55
271.719	7.42
271.934	7.68
272.149	8.86
272.363	9.64
272.578	9.4
272.793	8.81
273.008	8.75
273.223	8.16
273.438	8.63
273.653	8.12
273.867	7.79
274.082	7.33
274.297	6.78
274.512	5.19
274.726	5.39
274.941	4.33
275.156	4.29
275.371	4.48
275.585	4.83
275.8	4.73
276.015	5.43
276.229	7.2
276.444	7.42
276.659	7.89
276.873	8.51
277.088	8.67
277.302	8.88
277.517	9.09
277.732	9.74
277.946	9.58
278.161	9.25
278.375	9.03
278.59	7.05
278.804	6.68
279.019	6.28
279.233	6.41
279.448	6.85
279.662	8.72
279.877	7.77
280.091	7.36
280.306	6.81
280.52	6.4
280.735	6.65
280.949	7.72
281.163	7.66
281.378	7.87
281.592	8.88
281.806	8.49
282.021	8.42
282.235	8.87
282.449	8.6
282.664	9.43
282.878	10.79
283.092	9.9
283.307	10.06
283.521	10.86
283.735	10.3
283.949	9.43
284.164	9.05
284.378	8.36
284.592	8.19
284.806	9.25
285.02	8.61
285.234	8.59
285.449	8.09
285.663	8.19
285.877	8.49
286.091	9.09
286.305	8.69
286.519	9.4
286.733	9.34
286.947	9.86
287.161	8.38
287.375	8.79
287.589	7.39
287.803	8.33
288.017	7.8
288.231	7.1
288.445	7.3
288.659	8.02
288.873	8.22
289.087	7.67
289.301	7.64
289.515	8.48
289.729	7.74
289.943	9
290.157	10.15
290.371	10.03
290.584	10.06
290.798	10.01
291.012	9.67
291.226	9.42
291.44	11.01
291.654	10.53
291.867	11.4
292.081	11.06
292.295	11.51
292.509	9.92
292.722	10.42
292.936	10.96
293.15	10.18
293.364	11.95
293.577	12.3
293.791	11.52
294.005	12.09
294.218	12.31
294.432	13.03
294.645	12.14
294.859	12.3
295.073	11.55
295.286	11.42
295.5	11.35
295.713	10.45
295.927	9.33
296.14	8.48
296.354	8.17
296.568	7.67
296.781	8.38
296.994	8.16
297.208	7.85
297.421	8.13
297.635	8.09
297.848	8.66
298.062	8.82
298.275	9.15
298.489	9.64
298.702	10.05
298.915	10.52
299.129	10.42
299.342	10.36
299.555	10.84
299.769	10.13
299.982	10.2
300.195	9.75
300.409	9.38
300.622	9.4
300.835	9.63
301.048	9.62
301.262	8.44
301.475	7.37
301.688	7
301.901	7.4
302.115	8.83
302.328	8.89
302.541	8.43
302.754	7.97
302.967	9.1
303.18	8.79
303.393	8.96
303.607	10.36
303.82	10.38
304.033	11.9
304.246	12.22
304.459	11.62
304.672	11.79
304.885	12.23
305.098	12.66
305.311	11.28
305.524	11.09
305.737	10.55
305.95	8.56
306.163	7.83
306.376	6.73
306.589	5.63
306.802	4.18
307.015	3.96
307.228	5.04
307.44	5.01
307.653	5.91
307.866	6.39
308.079	7.55
308.292	9.3
308.505	9.99
308.718	9.5
308.93	9.08
309.143	10.17
309.356	9.24
309.569	8.6
309.781	8.61
309.994	7.52
310.207	7.37
310.42	7.32
310.632	6.48
310.845	7.39
311.058	8.18
311.27	8.39
311.483	8.32
311.696	8.41
311.908	8.32
312.121	8.19
312.333	8.82
312.546	8.58
312.759	7.77
312.971	8.6
313.184	7.37
313.396	7.65
313.609	7.99
313.821	8.29
314.034	9.66
314.246	9.44
314.459	9.9
314.671	10.35
314.884	11.88
315.096	12.63
315.309	12.38
315.521	12.93
315.733	12.14
315.946	12.74
316.158	12.95
316.371	11.88
316.583	12.2
316.795	11.23
317.008	11.3
317.22	10.09
317.432	9.2
317.644	9.28
317.857	9.22
318.069	9.18
318.281	8.6
318.494	8.74
318.706	9.64
318.918	9.14
319.13	9.38
319.342	7.65
319.555	7
319.767	7.47
319.979	5.98
320.191	6.26
320.403	6.71
320.615	7.2
320.827	7.11
321.039	5.56
321.252	6.19
321.464	6.68
321.676	7.7
321.888	7.7
322.1	7.84
322.312	8.91
322.524	9.18
322.736	8.94
322.948	9.16
323.16	7.85
323.372	7.79
323.584	7.6
323.796	6.84
324.007	7.17
324.219	8.04
324.431	8.04
324.643	7.03
324.855	6.83
325.067	7.04
325.279	6.33
325.491	7.17
325.702	8.45
325.914	8.14
326.126	9.72
326.338	10.65
326.55	10.02
326.761	10.39
326.973	11.81
327.185	11.62
327.396	12.01
327.608	12.35
327.82	12.87
328.032	12.44
328.243	13.07
328.455	12.47
328.666	11.47
328.878	12.04
329.09	12.59
329.301	12.04
329.513	12.45
329.725	11.21
329.936	11.14
330.148	11.19
330.359	11.1
330.571	10.52
330.782	9.98
330.994	10.09
331.205	9.59
331.417	8.49
331.628	8.47
331.84	8.66
332.051	9.06
332.262	9.74
332.474	9.71
332.685	10.29
332.897	11.27
333.108	11.57
333.319	11.77
333.531	13.06
333.742	12.87
333.953	12.69
334.165	12.8
334.376	12.86
334.587	12.3
334.799	11.57
335.01	9.7
335.221	9.37
335.432	10.03
335.644	9.97
335.855	8.88
336.066	9.09
336.277	8.65
336.488	8.44
336.7	8.01
336.911	7.75
337.122	7.9
337.333	9.26
337.544	8.62
337.755	8.08
337.966	7.23
338.177	7.15
338.388	7.52
338.599	8.03
338.811	7.89
339.022	7.67
339.233	6.76
339.444	7.94
339.655	7.63
339.866	8.22
340.076	8.03
340.287	8.49
340.498	9.12
340.709	8.48
340.92	8.21
341.131	8.41
341.342	8.87
341.553	10.47
341.764	8.75
341.975	8.32
342.185	8.56
342.396	8.55
342.607	8.18
342.818	7.24
343.029	7.49
343.239	7.76
343.45	7.13
343.661	7.33
343.872	6.47
344.082	7.27
344.293	8.06
344.504	8.29
344.714	8.44
344.925	8.93
345.136	9.44
345.346	8.24
345.557	8.21
345.768	8.23
345.978	8.06
346.189	7.41
346.399	7.08
346.61	6.95
346.821	6.65
347.031	6.46
347.242	7.15
347.452	7.33
347.663	7.89
347.873	8.61
348.084	9.77
348.294	9.44
348.504	10.77
348.715	11.7
348.925	11.72
349.136	11.11
349.346	11.49
349.557	11.08
349.767	10.75
349.977	11.48
350.188	10.14
350.398	9.1
350.608	9.81
350.819	9.29
351.029	8.01
351.239	8.23
351.449	8.62
351.66	8.14
351.87	7.37
352.08	7.12
352.29	7.61
352.501	7.97
352.711	7.63
352.921	7.86
353.131	7.41
353.341	7.87
353.552	7.57
353.762	7.26
353.972	7.37
354.182	7.68
354.392	7.89
354.602	6.88
354.812	7.37
355.022	7.46
355.232	8.04
355.442	8.56
355.652	8.2
355.862	8.14
356.072	8.36
356.282	8.95
356.492	8.96
356.702	8.76
356.912	9.07
357.122	8.96
357.332	9.12
357.542	8.05
357.752	7.85
357.962	8.27
358.171	8.53
358.381	9
358.591	8.56
358.801	8.74
359.011	9.14
359.221	8.99
359.43	8.48
359.64	8.82
359.85	9.04
360.06	9.26
360.269	9.16
360.479	8.71
360.689	8.44
360.899	8.37
361.108	8.08
361.318	8.04
361.528	8.41
361.737	8.84
361.947	8.61
362.156	8.38
362.366	8.44
362.576	8.34
362.785	8.62
362.995	8.26
363.204	8.22
363.414	8.35
363.623	7.96
363.833	7.61
364.042	7.51
364.252	7.63
364.461	7.36
364.671	7.13
364.88	7.65
365.09	7.21
365.299	7.56
365.509	7.43
365.718	7.28
365.927	7.95
366.137	8.19
366.346	8.35
366.555	8.51
366.765	8.94
366.974	8.89
367.183	8.34
367.393	8.47
367.602	8.57
367.811	9.15
368.021	9.75
368.23	8.81
368.439	8.33
368.648	8.17
368.857	8.44
369.067	8.62
369.276	9.26
369.485	8.76
369.694	8.88
369.903	8.54
370.112	7.94
370.321	7.1
370.531	7.69
370.74	7.73
370.949	7.57
371.158	6.87
371.367	6.66
371.576	6.28
371.785	6.7
371.994	6.61
372.203	6.33
372.412	6.73
372.621	6.98
372.83	6.55
373.039	6.67
373.248	7.09
373.457	7.41
373.666	7.99
373.874	7.58
374.083	7.5
374.292	7.62
374.501	7.93
374.71	7.82
374.919	7.49
375.128	8.09
375.336	8.32
375.545	7.62
375.754	7.74
375.963	7.21
376.171	7.36
376.38	7.54
376.589	6.98
376.798	6.52
377.006	6.41
377.215	6.79
377.424	6.62
377.632	6.53
377.841	6.76
378.05	6.72
378.258	6.85
378.467	6.87
378.675	6.42
378.884	6.92
379.093	7.36
379.301	7.19
379.51	6.97
379.718	6.6
379.927	6.54
380.135	6.59
380.344	6.41
380.552	6.64
380.761	6.51
380.969	7.05
381.177	6.84
381.386	6.56
381.594	6.74
381.803	6.76
382.011	6.99
382.219	7.16
382.428	7.27
382.636	7.19
382.845	6.9
383.053	6.68
383.261	6.5
383.469	6.66
383.678	6.89
383.886	6.77
384.094	7.14
384.302	7.2
384.511	6.93
384.719	6.83
384.927	6.87
385.135	6.97
385.343	6.91
385.552	7.03
385.76	7.09
385.968	6.83
386.176	6.75
386.384	6.36
386.592	6.53
386.8	6.74
387.008	6.53
387.216	6.36
387.424	6.31
387.633	6.44
387.841	6.2
388.049	6.29
388.257	6.48
388.465	6.48
388.672	6.54
388.88	6.04
389.088	5.81
389.296	6.2
389.504	6.26
389.712	6.2
389.92	6.44
390.128	6.55
390.336	6.54
390.544	6.31
390.751	6.29
390.959	6.33
391.167	6.83
391.375	6.7
391.583	6.13
391.79	6.32
391.998	6.34
392.206	6.34
392.414	6.44
392.621	6.15
392.829	6.31
393.037	6.52
393.244	6.68
393.452	6.36
393.66	6.32
393.867	6.48
394.075	6.44
394.283	6.3
394.49	6.29
394.698	6.08
394.905	5.98
395.113	5.78
395.32	5.74
395.528	5.74
395.735	6.16
395.943	6.4
396.15	6.37
396.358	6.18
396.565	6.35
396.773	6.22
396.98	6.13
397.188	6.43
397.395	6.62
397.602	6.45
397.81	6.11
398.017	5.53
398.225	5.41
398.432	5.38
398.639	5.13
398.847	5.09
399.054	5.09
399.261	5.08
399.468	5.03
399.676	5.09
399.883	4.99
400.09	5.03
400.297	5.38
400.505	5.36
400.712	5.73
400.919	6.04
401.126	6.16
401.333	6.16
401.54	6.44
401.748	6.46
401.955	6.51
402.162	6.55
402.369	6.88
402.576	6.67
402.783	6.57
402.99	6.52
403.197	6.56
403.404	6.51
403.611	6.65
403.818	6.43
404.025	6.36
404.232	6.13
404.439	6.29
404.646	5.92
404.853	6
405.06	6.07
405.267	5.9
405.474	5.85
405.681	5.65
405.887	5.69
406.094	5.8
406.301	5.9
406.508	6
406.715	5.73
406.922	5.75
407.128	5.61
407.335	5.58
407.542	5.77
407.749	5.81
407.955	5.97
408.162	6
408.369	6.06
408.575	6.07
408.782	6.15
408.989	6.24
409.195	6.24
409.402	6.24
409.609	6.18
409.815	5.87
410.022	5.84
410.228	5.86
410.435	5.79
410.642	6.04
410.848	5.92
411.055	5.8
411.261	5.93
411.468	6.18
411.674	6.52
411.881	6.81
412.087	6.76
412.294	6.77
412.5	6.52
412.706	6.18
412.913	5.83
413.119	5.77
413.326	5.73
413.532	5.63
413.738	5.44
413.945	5.24
414.151	5.18
414.357	5.69
414.564	5.47
414.77	5.76
414.976	6.11
415.182	6.08
415.389	6.23
415.595	6.15
415.801	6.09
416.007	6.1
416.214	5.94
416.42	5.81
416.626	5.41
416.832	5.75
417.038	5.7
417.244	5.57
417.45	5.65
417.657	5.71
417.863	5.86
418.069	5.94
418.275	6.05
418.481	6.06
418.687	5.95
418.893	6.05
419.099	5.78
419.305	5.84
419.511	5.81
419.717	5.8
419.923	5.57
420.129	5.48
420.335	5.42
420.541	5.37
420.746	5.33
420.952	5.48
421.158	5.42
421.364	5.48
421.57	5.36
421.776	5.34
421.982	5.35
422.187	5.42
422.393	5.39
422.599	5.31
422.805	5.15
423.01	5.08
423.216	4.85
423.422	4.72
423.628	4.61
423.833	4.58
424.039	4.56
424.245	4.4
424.45	4.5
424.656	4.54
424.862	4.65
425.067	4.67
425.273	4.83
425.478	4.98
425.684	5.13
425.889	5.3
426.095	5.32
426.301	5.27
426.506	5.45
426.712	5.29
426.917	5.34
427.123	5.36
427.328	5.34
427.533	5.19
427.739	5.24
427.944	5.11
428.15	5.06
428.355	4.81
428.561	4.82
428.766	4.69
428.971	4.73
429.177	4.61
429.382	4.66
429.587	4.85
429.793	4.89
429.998	4.71
430.203	4.77
430.408	4.53
430.614	4.68
430.819	4.72
431.024	4.68
431.229	4.63
431.434	4.62
431.64	4.44
431.845	4.36
432.05	4.56
432.255	4.46
432.46	4.47
432.665	4.68
432.87	4.77
433.076	4.73
433.281	4.7
433.486	4.76
433.691	4.65
433.896	4.6
434.101	4.5
434.306	4.28
434.511	4.37
434.716	4.42
434.921	4.29
435.126	4.38
435.331	4.43
435.535	4.43
435.74	4.23
435.945	4.48
436.15	4.33
436.355	4.52
436.56	4.5
436.765	4.5
436.97	4.41
437.174	4.44
437.379	4.31
437.584	4.26
437.789	4.27
437.993	4.3
438.198	4.11
438.403	4.29
438.608	4.23
438.812	4.27
439.017	4.25
439.222	4.25
439.426	4.25
439.631	4.22
439.836	4.41
440.04	4.45
440.245	4.64
440.45	4.71
440.654	4.8
440.859	4.74
441.063	4.85
441.268	4.84
441.472	4.96
441.677	4.87
441.881	4.89
442.086	4.62
442.29	4.54
442.495	4.34
442.699	4.34
442.904	4.26
443.108	4.4
443.312	4.18
443.517	4.03
443.721	3.98
443.925	4.04
444.13	4.18
444.334	4.51
444.538	4.65
444.743	4.81
444.947	4.77
445.151	4.77
445.356	4.72
445.56	4.82
445.764	4.97
445.968	5.02
446.173	5.04
446.377	4.94
446.581	4.77
446.785	4.69
446.989	4.62
447.193	4.46
447.398	4.3
447.602	4.17
447.806	4.09
448.01	3.96
448.214	3.82
448.418	3.82
448.622	3.76
448.826	3.81
449.03	3.8
449.234	3.72
449.438	3.84
449.642	3.95
449.846	4.08
450.05	4.05
450.254	4.3
450.458	4.27
450.662	4.16
450.866	4.21
451.069	4.13
451.273	4.18
451.477	4.11
451.681	3.96
451.885	3.98
452.089	3.94
452.292	3.94
452.496	3.73
452.7	3.67
452.904	3.68
453.107	3.67
453.311	3.79
453.515	3.68
453.719	3.77
453.922	3.87
454.126	3.77
454.33	3.75
454.533	3.61
454.737	3.52
454.94	3.64
455.144	3.64
455.348	3.63
455.551	3.54
455.755	3.51
455.958	3.55
456.162	3.6
456.365	3.81
456.569	3.78
456.772	3.95
456.976	4.22
457.179	4.21
457.383	4.19
457.586	4.16
457.79	4.04
457.993	3.98
458.196	3.92
458.4	3.9
458.603	3.75
458.807	3.9
459.01	3.78
459.213	3.76
459.417	3.73
459.62	3.69
459.823	3.7
460.026	3.7
460.23	3.77
460.433	3.77
460.636	3.71
460.839	3.71
461.042	3.62
461.246	3.74
461.449	3.63
461.652	3.68
461.855	3.78
462.058	3.79
462.261	3.96
462.464	4.08
462.668	4.08
462.871	4.25
463.074	4.28
463.277	4.09
463.48	4.01
463.683	4.12
463.886	4.05
464.089	4.11
464.292	4.1
464.495	4.15
464.698	3.99
464.901	3.96
465.104	4.05
465.306	4.18
465.509	4.24
465.712	4.17
465.915	4
466.118	4
466.321	4.01
466.524	4
466.726	3.88
466.929	3.79
467.132	3.86
467.335	3.75
467.538	3.55
467.74	3.72
467.943	3.88
468.146	3.98
468.348	3.99
468.551	3.89
468.754	3.9
468.956	3.99
469.159	4.05
469.362	3.97
469.564	3.95
469.767	4.16
469.969	4.08
470.172	4.2
470.375	4.22
470.577	4.27
470.78	4.4
470.982	4.4
471.185	4.39
471.387	4.34
471.59	4.42
471.792	4.45
471.995	4.4
472.197	4.41
472.399	4.35
472.602	4.36
472.804	4.19
473.007	3.94
473.209	3.86
473.411	3.78
473.614	3.87
473.816	3.9
474.018	3.84
474.22	3.87
474.423	3.7
474.625	3.62
474.827	3.51
475.03	3.56
475.232	3.7
475.434	3.86
475.636	3.79
475.838	3.71
476.04	3.66
476.243	3.6
476.445	3.58
476.647	3.71
476.849	3.74
477.051	3.77
477.253	3.77
477.455	3.84
477.657	3.73
477.859	3.82
478.061	3.81
478.263	3.83
478.465	3.8
478.667	3.76
478.869	3.93
479.071	3.82
479.273	3.81
479.475	3.78
479.677	3.69
479.879	3.81
480.081	3.78
480.283	3.85
480.485	3.8
480.686	3.89
480.888	3.81
481.09	3.7
481.292	3.75
481.494	3.79
481.695	3.92
481.897	3.99
482.099	3.84
482.301	3.79
482.502	3.79
482.704	3.78
482.906	3.78
483.107	3.83
483.309	3.85
483.511	3.87
483.712	3.84
483.914	3.85
484.115	3.81
484.317	3.83
484.519	3.87
484.72	3.9
484.922	3.87
485.123	3.89
485.325	3.89
485.526	3.85
485.728	3.83
485.929	3.9
486.131	3.81
486.332	3.9
486.534	3.94
486.735	3.88
486.936	3.82
487.138	3.91
487.339	3.86
487.541	3.93
487.742	4.01
487.943	4.02
488.144	4.01
488.346	4.06
488.547	4.04
488.748	4.07
488.95	4.08
489.151	4.12
489.352	4.02
489.553	4.15
489.755	4.11
489.956	4.06
490.157	4.05
490.358	4.02
490.559	4.03
490.76	4.05
490.961	4.05
491.163	4.18
491.364	4.22
491.565	4.31
491.766	4.24
491.967	4.31
492.168	4.31
492.369	4.31
492.57	4.31
492.771	4.36
492.972	4.33
493.173	4.37
493.374	4.36
493.575	4.33
493.776	4.27
493.976	4.25
494.177	4.11
494.378	4.15
494.579	4.07
494.78	4.04
494.981	3.99
495.182	3.94
495.382	3.81
495.583	3.78
495.784	3.84
495.985	3.99
496.185	3.94
496.386	4.05
496.587	4.06
496.788	4.08
496.988	4.29
497.189	4.22
497.39	4.42
497.59	4.5
497.791	4.4
497.992	4.42
498.192	4.43
498.393	4.61
498.593	4.53
498.794	4.4
498.994	4.56
499.195	4.4
499.395	4.39
499.596	4.29
499.796	4.24
499.997	4.23
500.197	4.22
500.398	4.31
500.598	4.26
500.799	4.44
500.999	4.51
501.199	4.49
501.4	4.47
501.6	4.6
501.801	4.53
502.001	4.55
502.201	4.61
502.402	4.53
502.602	4.5
502.802	4.49
503.002	4.49
503.203	4.51
503.403	4.51
503.603	4.65
503.803	4.67
504.003	4.76
504.204	4.83
504.404	4.77
504.604	4.86
504.804	4.83
505.004	4.84
505.204	4.7
505.404	4.79
505.604	4.86
505.804	4.87
506.005	4.91
506.205	4.88
506.405	4.86
506.605	5.1
506.805	5.1
507.005	4.99
507.204	4.94
507.404	4.96
507.604	4.84
507.804	4.89
508.004	5.03
508.204	5.01
508.404	5.12
508.604	5.18
508.804	5.07
509.003	5.16
509.203	5.23
509.403	5.29
509.603	5.31
509.803	5.47
510.002	5.39
510.202	5.19
510.402	5.21
510.602	5.25
510.801	5.28
511.001	5.26
511.201	5.22
511.4	5.25
511.6	5.41
511.8	5.51
511.999	5.49
512.199	5.59
512.398	5.62
512.598	5.75
512.797	5.79
512.997	5.78
513.197	5.99
513.396	5.98
513.596	5.97
513.795	5.91
513.994	5.96
514.194	6.1
514.393	6.03
514.593	6.22
514.792	6.2
514.992	6.14
515.191	6.28
515.39	6.02
515.59	6.17
515.789	6.22
515.988	6.24
516.188	6.33
516.387	6.3
516.586	6.48
516.786	6.38
516.985	6.22
517.184	6.24
517.383	6.14
517.582	6.28
517.782	6.25
517.981	6.41
518.18	6.31
518.379	6.27
518.578	6.38
518.777	6.37
518.976	6.38
519.176	6.51
519.375	6.59
519.574	6.67
519.773	6.76
519.972	6.85
520.171	6.91
520.37	7.06
520.569	7.13
520.768	7.14
520.967	7.19
521.166	7.3
521.365	7.45
521.564	7.46
521.762	7.42
521.961	7.48
522.16	7.47
522.359	7.44
522.558	7.53
522.757	7.56
522.956	7.54
523.154	7.56
523.353	7.74
523.552	7.74
523.751	7.73
523.949	7.91
524.148	7.81
524.347	7.91
524.546	7.93
524.744	8
524.943	8.14
525.142	8.08
525.34	8.09
525.539	8.01
525.737	7.98
525.936	8.09
526.135	8.09
526.333	8.21
526.532	8.22
526.73	8.31
526.929	8.22
527.127	8.18
527.326	8.22
527.524	8.28
527.723	8.33
527.921	8.37
528.12	8.36
528.318	8.45
528.516	8.46
528.715	8.54
528.913	8.53
529.112	8.59
529.31	8.64
529.508	8.75
529.707	8.8
529.905	8.87
530.103	8.94
530.301	8.98
530.5	8.96
530.698	9.06
530.896	9.08
531.094	9.2
531.293	9.34
531.491	9.4
531.689	9.41
531.887	9.53
532.085	9.57
532.283	9.6
532.481	9.75
532.68	9.85
532.878	9.92
533.076	9.96
533.274	9.92
533.472	9.86
533.67	9.91
533.868	9.92
534.066	9.86
534.264	9.9
534.462	10.01
534.66	10.1
534.858	10.09
535.056	10.12
535.253	10.15
535.451	10.24
535.649	10.38
535.847	10.43
536.045	10.49
536.243	10.68
536.441	10.83
536.638	10.82
536.836	10.82
537.034	10.89
537.232	10.93
537.43	10.98
537.627	11.07
537.825	11.06
538.023	11.08
538.22	11.21
538.418	11.13
538.616	11.09
538.813	11.16
539.011	11.19
539.209	11.33
539.406	11.43
539.604	11.51
539.801	11.67
539.999	11.86
540.196	11.94
540.394	11.96
540.591	12.05
540.789	12.06
540.986	12.09
541.184	12.09
541.381	12.14
541.579	12.19
541.776	12.24
541.974	12.23
542.171	12.19
542.368	12.26
542.566	12.36
542.763	12.42
542.96	12.47
543.158	12.64
543.355	12.75
543.552	12.9
543.75	12.93
543.947	13.06
544.144	13.09
544.341	13.29
544.539	13.37
544.736	13.42
544.933	13.43
545.13	13.66
545.327	13.6
545.524	13.67
545.722	13.63
545.919	13.64
546.116	13.62
546.313	13.86
546.51	13.77
546.707	13.89
546.904	13.88
547.101	14.06
547.298	14.12
547.495	14.16
547.692	14.25
547.889	14.33
548.086	14.55
548.283	14.82
548.48	14.82
548.677	14.96
548.874	15.02
549.07	15.27
549.267	15.36
549.464	15.34
549.661	15.52
549.858	15.69
550.055	15.69
550.251	15.72
550.448	15.53
550.645	15.75
550.842	15.95
551.038	15.99
551.235	16.12
551.432	16.3
551.628	16.39
551.825	16.53
552.022	16.48
552.218	16.64
552.415	16.65
552.612	16.73
552.808	16.61
553.005	16.72
553.201	16.76
553.398	16.83
553.594	16.68
553.791	16.8
553.987	16.98
554.184	17.06
554.38	17.05
554.577	17.23
554.773	17.47
554.97	17.58
555.166	17.74
555.362	17.73
555.559	17.9
555.755	18.26
555.952	18.4
556.148	18.22
556.344	18.44
556.541	18.61
556.737	18.61
556.933	18.67
557.129	18.75
557.326	18.55
557.522	18.65
557.718	18.52
557.914	18.42
558.11	18.4
558.307	18.71
558.503	18.69
558.699	18.77
558.895	18.98
559.091	18.94
559.287	19.33
559.483	19.58
559.679	19.79
559.876	19.89
560.072	20.18
560.268	20.23
560.464	20.2
560.66	20.31
560.856	20.55
561.052	20.62
561.247	20.76
561.443	20.57
561.639	20.57
561.835	20.7
562.031	20.89
562.227	20.76
562.423	21.01
562.619	21.17
562.815	21.38
563.01	21.34
563.206	21.58
563.402	21.74
563.598	22.04
563.793	22.21
563.989	22.5
564.185	22.36
564.381	22.69
564.576	22.84
564.772	22.99
564.968	22.95
565.163	23.22
565.359	23.11
565.555	23.19
565.75	23.17
565.946	23.36
566.141	23.36
566.337	23.5
566.532	23.58
566.728	23.61
566.923	23.48
567.119	23.62
567.314	23.59
567.51	23.7
567.705	23.76
567.901	23.76
568.096	23.86
568.292	23.92
568.487	24.09
568.682	24.16
568.878	24.11
569.073	24.32
569.268	24.44
569.464	24.48
569.659	24.54
569.854	24.72
570.05	24.88
570.245	24.78
570.44	24.77
570.635	24.83
570.831	24.89
571.026	25.04
571.221	25.16
571.416	25.28
571.611	25.46
571.806	25.56
572.002	25.74
572.197	25.74
572.392	25.88
572.587	26.08
572.782	26.12
572.977	26.29
573.172	26.33
573.367	26.45
573.562	26.59
573.757	26.63
573.952	26.71
574.147	26.72
574.342	26.97
574.537	26.97
574.732	26.95
574.927	26.89
575.121	26.78
575.316	26.97
575.511	27.01
575.706	27
575.901	27.06
576.096	27.18
576.29	27.14
576.485	27.13
576.68	27.04
576.875	26.99
577.069	27.21
577.264	27.23
577.459	27.23
577.654	27.38
577.848	27.36
578.043	27.58
578.238	27.59
578.432	27.66
578.627	27.67
578.821	27.98
579.016	28.07
579.21	28.18
579.405	28.4
579.6	28.42
579.794	28.47
579.989	28.41
580.183	28.43
580.378	28.37
580.572	28.35
580.766	28.51
580.961	28.46
581.155	28.47
581.35	28.75
581.544	28.78
581.738	28.87
581.933	28.89
582.127	28.97
582.321	28.74
582.516	28.99
582.71	29.26
582.904	29.49
583.099	29.67
583.293	29.89
583.487	29.49
583.681	29.67
583.875	29.65
584.07	29.84
584.264	29.91
584.458	30.2
584.652	30.22
584.846	30.25
585.04	30.16
585.234	30.2
585.428	30.25
585.623	30.74
585.817	30.67
586.011	30.85
586.205	30.79
586.399	31.05
586.593	30.94
586.787	30.98
586.981	30.87
587.174	30.65
587.368	30.62
587.562	30.76
587.756	30.63
587.95	30.6
588.144	30.58
588.338	30.64
588.532	30.51
588.725	30.48
588.919	30.46
589.113	30.8
589.307	30.85
589.501	31.05
589.694	31.11
589.888	31.35
590.082	31.54
590.275	31.59
590.469	31.57
590.663	31.67
590.856	31.99
591.05	32.1
591.244	32.06
591.437	32.44
591.631	32.63
591.824	32.5
592.018	32.42
592.212	32.5
592.405	32.61
592.599	32.68
592.792	32.9
592.986	32.94
593.179	33.27
593.372	33.43
593.566	33.56
593.759	33.42
593.953	33.68
594.146	33.75
594.339	33.94
594.533	33.96
594.726	34.06
594.92	34.03
595.113	34.13
595.306	33.96
595.499	33.8
595.693	33.84
595.886	34.06
596.079	34.14
596.272	33.97
596.466	33.94
596.659	33.89
596.852	33.74
597.045	33.72
597.238	33.64
597.431	33.7
597.624	33.91
597.818	33.83
598.011	33.59
598.204	33.59
598.397	33.81
598.59	33.69
598.783	33.72
598.976	33.88
599.169	34.02
599.362	33.91
599.555	33.64
599.748	33.47
599.941	33.39
600.134	33.69
600.326	33.55
600.519	33.38
600.712	33.41
600.905	33.71
601.098	33.94
601.291	34.08
601.483	34.38
601.676	34.67
601.869	34.7
602.062	34.77
602.255	34.67
602.447	34.74
602.64	34.87
602.833	34.68
603.025	34.62
603.218	34.34
603.411	34.19
603.603	34.18
603.796	34.27
603.989	34.26
604.181	34.31
604.374	34.41
604.566	34.5
604.759	34.46
604.951	34.78
605.144	34.65
605.336	34.91
605.529	34.89
605.721	34.79
605.914	34.76
606.106	34.92
606.299	34.86
606.491	34.83
606.683	34.67
606.876	34.83
607.068	34.81
607.26	34.94
607.453	34.83
607.645	34.99
607.837	35.23
608.03	35.29
608.222	35.32
608.414	35.47
608.606	35.44
608.799	35.76
608.991	35.85
609.183	35.85
609.375	35.98
609.567	36.14
609.759	36.08
609.952	36.11
610.144	36.16
610.336	36.1
610.528	36.05
610.72	35.92
610.912	35.82
611.104	35.81
611.296	35.76
611.488	35.7
611.68	35.53
611.872	35.4
612.064	35.4
612.256	35.3
612.448	35.27
612.64	35.47
612.832	35.9
613.023	35.87
613.215	35.86
613.407	35.92
613.599	35.9
613.791	35.96
613.983	36.26
614.174	35.89
614.366	36.01
614.558	35.87
614.75	35.58
614.941	35.52
615.133	35.52
615.325	35.59
615.516	35.56
615.708	35.91
615.9	36.03
616.091	35.77
616.283	35.77
616.475	35.73
616.666	36.14
616.858	36.31
617.049	36.18
617.241	36.44
617.432	36.36
617.624	36.56
617.815	36.41
618.007	36.35
618.198	36.48
618.39	36.79
618.581	37
618.773	36.84
618.964	36.8
619.155	36.96
619.347	36.77
619.538	36.95
619.729	37.03
619.921	37.16
620.112	37.3
620.303	37.35
620.494	37.4
620.686	37.31
620.877	37.3
621.068	37.15
621.259	37.26
621.451	37.37
621.642	37.18
621.833	36.9
622.024	36.87
622.215	36.48
622.406	36.65
622.597	36.51
622.788	36.61
622.98	36.51
623.171	36.84
623.362	36.68
623.553	36.66
623.744	36.99
623.935	37.13
624.126	37.22
624.317	37.56
624.508	37.63
624.698	37.9
624.889	37.7
625.08	37.93
625.271	37.87
625.462	37.99
625.653	37.93
625.844	37.93
626.034	38.08
626.225	38.06
626.416	38.21
626.607	38.29
626.798	38.28
626.988	38.34
627.179	38.33
627.37	38.38
627.56	38.38
627.751	38.43
627.942	38.28
628.132	38.2
628.323	38.07
628.514	37.93
628.704	38
628.895	37.95
629.085	38
629.276	37.99
629.466	38.05
629.657	38.15
629.847	38.2
630.038	38.26
630.228	38.39
630.419	38.49
630.609	38.78
630.8	38.74
630.99	39.07
631.181	39.44
631.371	39.41
631.561	39.48
631.752	39.34
631.942	39.44
632.132	39.32
632.323	39.31
632.513	39.37
632.703	39.41
632.893	39.19
633.084	38.89
633.274	38.69
633.464	39.04
633.654	39.04
633.844	39.14
634.034	39.04
634.225	39.14
634.415	39.21
634.605	38.94
634.795	38.89
634.985	38.87
635.175	38.89
635.365	38.88
635.555	38.63
635.745	38.58
635.935	38.61
636.125	38.69
636.315	38.77
636.505	38.46
636.695	38.75
636.885	38.41
637.075	38.69
637.265	39.1
637.455	38.91
637.644	38.87
637.834	39
638.024	38.92
638.214	39.04
638.404	39.08
638.593	39.26
638.783	39.56
638.973	39.88
639.163	39.89
639.352	39.71
639.542	39.83
639.732	39.93
639.921	39.73
640.111	39.92
640.301	39.98
640.49	39.92
640.68	39.76
640.87	39.53
641.059	39.39
641.249	39.64
641.438	39.18
641.628	39.22
641.817	39.51
642.007	39.51
642.196	39.19
642.386	39.18
642.575	39.25
642.764	39.66
642.954	39.69
643.143	39.91
643.333	39.28
643.522	39.39
643.711	39.56
643.901	39.08
644.09	39.47
644.279	40.01
644.469	39.78
644.658	39.75
644.847	39.56
645.036	39.46
645.226	39.45
645.415	39.6
645.604	39.87
645.793	40.02
645.982	40.07
646.171	39.68
646.361	39.42
646.55	39.54
646.739	39.47
646.928	39.72
647.117	40.13
647.306	39.94
647.495	40.04
647.684	40.14
647.873	40.28
648.062	40.83
648.251	41.42
648.44	41.08
648.629	41.12
648.818	41.71
649.007	41.67
649.196	41.4
649.384	41.47
649.573	41.25
649.762	41.14
649.951	40.83
650.14	40.55
650.328	40.27
650.517	40.51
650.706	40.8
650.895	40.67
651.083	40.62
651.272	39.96
651.461	40.14
651.65	40.24
651.838	40.35
652.027	39.99
652.216	40.12
652.404	39.89
652.593	40.29
652.781	39.86
652.97	39.52
653.158	39.57
653.347	40.36
653.535	40.13
653.724	40.48
653.912	40.63
654.101	41.26
654.289	41.15
654.478	41.53
654.666	41.22
654.855	41.21
655.043	40.96
655.231	40.85
655.42	40.59
655.608	40.81
655.796	40.47
655.985	40.46
656.173	40.39
656.361	40.67
656.55	40.45
656.738	40.84
656.926	41.39
657.114	42.09
657.302	41.73
657.491	41.83
657.679	41.7
657.867	42.04
658.055	41.91
658.243	41.91
658.431	41.83
658.619	42.07
658.807	41.66
658.996	41.7
659.184	41.58
659.372	42.02
659.56	42.11
659.748	42.17
659.936	42.02
660.124	42.26
660.311	42.33
660.499	42.17
660.687	42.11
660.875	42.5
661.063	42.23
661.251	42.09
661.439	41.96
661.627	42.17
661.814	42.17
662.002	42.05
662.19	41.99
662.378	41.97
662.565	42.13
662.753	42.02
662.941	41.44
663.129	41.12
663.316	41.02
663.504	40.8
663.692	40.22
663.879	40.34
664.067	40.54
664.254	40.64
664.442	40.83
664.63	40.66
664.817	40.79
665.005	41
665.192	41.85
665.38	41.91
665.567	42.12
665.755	42.72
665.942	42.7
666.13	43.38
666.317	42.78
666.504	42.26
666.692	42.22
666.879	42.47
667.067	42.71
667.254	42.5
667.441	43.01
667.629	43.23
667.816	42.7
668.003	42.45
668.19	42.23
668.378	42.89
668.565	42.66
668.752	42.93
668.939	42.95
669.127	42.95
669.314	42.96
669.501	42.72
669.688	42.38
669.875	42.63
670.062	42.87
670.249	42.16
670.436	41.9
670.623	42.24
670.81	42.37
670.997	42.12
671.184	42.2
671.371	42.52
671.558	42.52
671.745	42.95
671.932	43.16
672.119	42.71
672.306	43.43
672.493	43.08
672.68	43.53
672.867	43.91
673.054	44.06
673.24	44.07
673.427	44.21
673.614	44.23
673.801	44.17
673.988	44.26
674.174	44.82
674.361	45.25
674.548	45.54
674.734	45.36
674.921	45.16
675.108	44.85
675.294	45.15
675.481	44.69
675.668	44.84
675.854	44.84
676.041	44.56
676.227	44.61
676.414	44.27
676.601	44.43
676.787	44.37
676.974	43.86
677.16	44.03
677.347	44.08
677.533	43.94
677.719	43.44
677.906	43.64
678.092	43.78
678.279	43.58
678.465	43.31
678.651	43.32
678.838	43.18
679.024	43.35
679.21	43.57
679.397	43.37
679.583	43.67
679.769	44.11
679.955	44.04
680.142	44.01
680.328	44.22
680.514	44.05
680.7	43.95
680.886	44.14
681.073	44
681.259	43.61
681.445	43.45
681.631	43.4
681.817	43.35
682.003	43.32
682.189	43.59
682.375	43.51
682.561	43.93
682.747	44.1
682.933	44
683.119	44.42
683.305	44.91
683.491	45.02
683.677	44.74
683.863	44.78
684.049	45.15
684.235	44.84
684.42	44.86
684.606	44.95
684.792	44.97
684.978	45.03
685.164	44.82
685.349	44.94
685.535	44.93
685.721	45.08
685.907	44.94
686.092	44.61
686.278	44.58
686.464	44.74
686.649	44.41
686.835	44.08
687.021	43.9
687.206	43.99
687.392	43.48
687.577	43.4
687.763	43.4
687.948	43.52
688.134	43.64
688.319	43.58
688.505	43.14
688.69	43.36
688.876	43.65
689.061	43.6
689.247	43.73
689.432	43.77
689.618	43.67
689.803	43.83
689.988	43.71
690.174	43.26
690.359	43.27
690.544	43.6
690.73	43.27
690.915	43.32
691.1	43.65
691.285	43.66
691.471	44.02
691.656	44.39
691.841	44.03
692.026	44.01
692.211	44.2
692.396	44.27
692.582	44.3
692.767	44.61
692.952	44.65
693.137	44.46
693.322	44.21
693.507	44.19
693.692	44.01
693.877	44.38
694.062	44.27
694.247	44.46
694.432	44.83
694.617	44.91
694.802	45.07
694.987	44.98
695.172	45.06
695.357	45.33
695.541	45.17
695.726	45.59
695.911	45.81
696.096	45.99
696.281	46.01
696.466	46.01
696.65	45.6
696.835	45.65
697.02	45.59
697.204	45.9
697.389	45.91
697.574	45.88
697.759	45.45
697.943	45.33
698.128	45.2
698.312	45.12
698.497	44.81
698.682	45.07
698.866	45.12
699.051	45.27
699.235	45.08
699.42	44.96
699.604	45.23
699.789	45.17
699.973	45.02
700.158	45.27
700.342	45.13
700.527	45.45
700.711	45.33
700.895	45.36
701.08	45.43
701.264	45.56
701.448	45.63
701.633	45.12
701.817	45.61
702.001	45.46
702.186	45.3
702.37	45.37
702.554	45.14
702.738	44.89
702.923	44.85
703.107	45.16
703.291	45.01
703.475	44.7
703.659	45.05
703.843	44.98
704.027	45.58
704.212	44.9
704.396	45.61
704.58	45.75
704.764	46.3
704.948	45.27
705.132	45.02
705.316	45.11
705.5	45.56
705.684	45.61
705.868	45.35
706.052	45.52
706.235	46.05
706.419	45.3
706.603	45.22
706.787	45.08
706.971	45.61
707.155	45.44
707.339	45.67
707.522	45.42
707.706	45.4
707.89	45.06
708.074	44.35
708.257	44.3
708.441	44.92
708.625	45.16
708.808	45.03
708.992	45.02
709.176	44.68
709.359	44.3
709.543	44.67
709.727	44.6
709.91	44.68
710.094	44.96
710.277	45.09
710.461	44.36
710.644	43.98
710.828	44.05
711.011	44.55
711.195	44.85
711.378	45.19
711.562	45.07
711.745	44.95
711.928	45.28
712.112	45.36
712.295	45.55
712.478	45.52
712.662	45.92
712.845	46.12
713.028	45.78
713.212	45.1
713.395	45.39
713.578	45.31
713.761	45.85
713.945	45.59
714.128	45.68
714.311	46.04
714.494	46.28
714.677	45.98
714.86	45.99
715.043	46.37
715.227	46.92
715.41	46.21
715.593	46.57
715.776	46.43
715.959	46.8
716.142	46.32
716.325	46.06
716.508	46.23
716.691	46.5
716.874	46.69
717.057	46
717.239	46.03
717.422	46.25
717.605	45.75
717.788	45.59
717.971	45.92
718.154	46.54
718.337	46.55
718.519	46.49
718.702	45.9
718.885	45.6
719.068	46.01
719.25	46.49
719.433	46.83
719.616	47.28
719.798	47.04
719.981	47.29
720.164	46.72
720.346	47.21
720.529	46.02
720.712	46.03
720.894	45.51
721.077	45.13
721.259	44.84
721.442	44.25
721.624	43.97
721.807	43.93
721.989	43.17
722.172	43.72
722.354	42.85
722.537	44.39
722.719	44.87
722.901	45.58
723.084	45.99
723.266	45.15
723.448	45.03
723.631	45.27
723.813	45.48
723.995	45.89
724.178	45.79
724.36	45.97
724.542	45.43
724.724	45.56
724.907	45.67
725.089	45.96
725.271	46.34
725.453	46.66
725.635	47.05
725.817	47.55
725.999	47.66
726.181	48.03
726.364	48.25
726.546	48.07
726.728	48.15
726.91	48.43
727.092	48
727.274	47.51
727.456	47.6
727.638	47.37
727.819	47.15
728.001	46.9
728.183	45.63
728.365	45.55
728.547	46.44
728.729	46.15
728.911	46.09
729.093	46.26
729.274	47.26
729.456	47.36
729.638	46.66
729.82	46.99
730.001	47.05
730.183	47.69
730.365	47.13
730.546	46.91
730.728	46.64
730.91	46.45
731.091	46.62
731.273	46.44
731.455	46.62
731.636	46.83
731.818	46.07
731.999	46.13
732.181	46.75
732.362	47.35
732.544	46.74
732.725	47.22
732.907	47.82
733.088	47.53
733.27	47.44
733.451	47.56
733.633	48.79
733.814	49.68
733.995	49.76
734.177	48.99
734.358	49.39
734.539	50.56
734.721	50.45
734.902	49.22
735.083	48.96
735.264	49.34
735.446	48.67
735.627	47.82
735.808	47.11
735.989	45.86
736.17	46.08
736.351	45.86
736.533	45.45
736.714	44.81
736.895	45.06
737.076	44.85
737.257	44.26
737.438	44.89
737.619	44.04
737.8	43.59
737.981	44.97
738.162	45.04
738.343	44.72
738.524	44.85
738.705	46.14
738.886	46.17
739.067	46.33
739.247	46.6
739.428	45.67
739.609	46.04
739.79	46.87
739.971	46.2
740.151	46.15
740.332	46.47
740.513	46.35
740.694	45
740.874	44.59
741.055	45.36
741.236	46.59
741.417	47.77
741.597	47.16
741.778	46.13
741.958	46.7
742.139	46.88
742.32	46.84
742.5	46.11
742.681	46.81
742.861	47.4
743.042	46.76
743.222	45.18
743.403	44.32
743.583	46.26
743.764	47.35
743.944	46.93
744.124	46.79
744.305	46.32
744.485	46.55
744.666	46.04
744.846	46.65
745.026	46.53
745.207	46.52
745.387	46.94
745.567	45.58
745.747	44.65
745.928	44.19
746.108	44.03
746.288	43.82
746.468	44.59
746.648	45.54
746.829	44.7
747.009	45.41
747.189	45.92
747.369	46.73
747.549	46.99
747.729	47.5
747.909	48.9
748.089	49.4
748.269	50.24
748.449	49.86
748.629	49.71
748.809	49.4
748.989	49.19
749.169	49.22
749.349	48.1
749.529	48.14
749.709	48.48
749.889	48.04
750.068	47.65
750.248	47.72
750.428	47.47
750.608	48.02
750.788	48.19
750.967	48.39
751.147	48.52
751.327	48.14
751.507	47.9
751.686	47.8
751.866	47.48
752.046	47.32
752.225	47.49
752.405	48.25
752.585	46.43
752.764	46.55
752.944	45.27
753.123	45.78
753.303	47.11
753.482	47.66
753.662	47.14
753.841	47.49
754.021	47.86
754.2	47.43
754.38	46.27
754.559	47.65
754.739	47.23
754.918	47.95
755.097	46.87
755.277	45.72
755.456	45.36
755.635	44.83
755.815	45.31
755.994	45.83
756.173	46.05
756.352	47.13
756.532	47.05
756.711	47.88
756.89	47.92
757.069	48.1
757.248	47.93
757.427	47.72
757.607	48.46
757.786	48.03
757.965	47.17
758.144	47.16
758.323	46.42
758.502	45.85
758.681	45.96
758.86	46.62
759.039	46.17
759.218	46.71
759.397	46.98
759.576	46.44
759.755	45.02
759.934	45.45
760.113	45.37
760.291	46.25
760.47	46.31
760.649	46.14
760.828	45.52
761.007	45.29
761.186	45.46
761.364	45.12
761.543	46.39
761.722	47.77
761.901	47.87
762.079	47.7
762.258	46.7
762.437	46.92
762.615	47.48
762.794	48.21
762.972	48.98
763.151	48.55
763.33	48.48
763.508	48.51
763.687	48.73
763.865	48.78
764.044	48.96
764.222	48.69
764.401	49.39
764.579	48.66
764.758	47.8
764.936	48.05
765.114	48.01
765.293	47.92
765.471	47.07
765.65	46.76
765.828	47.01
766.006	46.26
766.184	46.44
766.363	45.36
766.541	44.92
766.719	45.54
766.898	44.93
767.076	45.27
767.254	45.59
767.432	46.12
767.61	45.41
767.788	44.72
767.967	45.61
768.145	46.25
768.323	45.79
768.501	46.3
768.679	46.38
768.857	46.18
769.035	45.92
769.213	45.53
769.391	44.91
769.569	45.43
769.747	45.11
769.925	44.02
770.103	43.52
770.281	44.11
770.459	44.46
770.636	45.17
770.814	45.79
770.992	45.85
771.17	45.57
771.348	44.05
771.525	42.97
771.703	43.9
771.881	44.18
772.059	44.9
772.236	45.03
772.414	44.95
772.592	44.22
772.769	43.39
772.947	43.46
773.125	45.46
773.302	48.45
773.48	49
773.657	49.05
773.835	49.82
774.013	50.32
774.19	49.87
774.368	50.12
774.545	50.41
774.723	50.35
774.9	50.7
775.077	50.51
775.255	48.53
775.432	49.98
775.61	48.89
775.787	47.78
775.964	46.62
776.142	48.54
776.319	49.98
776.496	47.92
776.674	47.98
776.851	47.45
777.028	46.95
777.205	49.02
777.382	46.67
777.56	46.3
777.737	47.65
777.914	47.15
778.091	45.07
778.268	42.98
778.445	43.63
778.622	43.44
778.8	45.84
778.977	44.59
779.154	50.25
779.331	52.49
779.508	54.19
779.685	52.66
779.862	52.33
780.038	52.52
780.215	53.98
780.392	55.97
780.569	57.7
780.746	55.74
780.923	55.81
781.1	48.97
781.277	47.39
781.453	45.69
781.63	47.37
781.807	50.06
781.984	51.91
782.16	51.79
782.337	49.82
782.514	49.67
782.691	50.54
782.867	51.01
783.044	49.99
783.221	51.48
783.397	52.53
783.574	52.94
783.75	51.19
783.927	50.25
784.103	51.48
784.28	51.63
784.456	51.46
784.633	49.02
784.809	49.29
784.986	48.95
785.162	48.09
785.339	47.86
785.515	46.93
785.692	47.64
785.868	47.59
786.044	45.27
786.221	45.58
786.397	45.62
786.573	47.47
786.749	46.66
786.926	47.15
787.102	47.63
787.278	47.88
787.454	46.39
787.631	45.81
787.807	44.99
787.983	43.96
788.159	44.03
788.335	44.94
788.511	45.2
788.687	47.45
788.863	48.65
789.039	49.08
789.216	48.12
789.392	48.6
789.568	49.07
789.744	51.38
789.919	54.31
790.095	54.35
790.271	53.44
790.447	52.44
790.623	50.72
790.799	50.36
790.975	48.82
791.151	49.06
791.327	50.19
791.502	49.22
791.678	46.8
791.854	46.7
792.03	47.25
792.205	46.42
792.381	48.78
792.557	49.35
792.733	49.19
792.908	50.39
793.084	51.5
793.259	50.96
793.435	51.86
793.611	50.81
793.786	49.88
793.962	50.4
794.137	51.22
794.313	48.72
794.488	49.81
794.664	50.37
794.839	50.24
795.015	48.58
795.19	49.62
795.366	47.84
795.541	49.17
795.716	48.47
795.892	47.95
796.067	46.84
796.242	45.28
796.418	43.41
796.593	42.55
796.768	42.03
796.944	43.6
797.119	41.36
797.294	44.94
797.469	44.89
797.644	46.18
797.82	45.68
797.995	44.91
798.17	48.19
798.345	49.29
798.52	48.3
798.695	48.68
798.87	48.29
799.045	49.28
799.22	47.06
799.395	46.48
799.57	47.11
799.745	48.9
799.92	49.2
800.095	47.35
800.27	45.34
800.445	47.89
800.62	46.25
800.795	44.52
800.97	44.96
801.145	43.78
801.319	43.07
801.494	40.26
801.669	39.97
801.844	42.04
802.018	41.69
802.193	41.63
802.368	41.17
802.543	44.11
802.717	45.88
802.892	46.01
803.067	50.3
803.241	52.55
803.416	54.12
803.59	54.15
803.765	53.53
803.94	53.41
804.114	54.14
804.289	51.66
804.463	50.65
804.638	48.15
804.812	49
804.986	46.47
805.161	46.37
805.335	45.72
805.51	45.84
805.684	46.21
805.858	46.33
806.033	47.44
806.207	49.38
806.381	49.31
806.556	51.58
806.73	51.81
806.904	51.17
807.078	50.74
807.253	51.58
807.427	49.53
807.601	51.06
807.775	51.64
807.949	51.1
808.123	52.33
808.298	52.46
808.472	53.97
808.646	51.31
808.82	51.74
808.994	53.54
809.168	51.83
809.342	52.44
809.516	48.4
809.69	47.47
809.864	47.95
810.038	45.93
810.212	44.14
810.385	41.37
810.559	42.71
810.733	40.83
810.907	37.48
811.081	38.33
811.255	38.49
811.428	38.95
811.602	40.38
811.776	41.22
811.95	40.06
812.123	39.41
812.297	37.74
812.471	39.19
812.644	41.05
812.818	44.79
812.992	48.28
813.165	49.78
813.339	48.85
813.512	47.92
813.686	47.52
813.86	50.54
814.033	51.86
814.207	55.85
814.38	53.52
814.554	52.21
814.727	51.48
814.9	49.59
815.074	49.97
815.247	50.28
815.421	47.52
815.594	46.21
815.767	44.26
815.941	43.59
816.114	43.17
816.287	45.41
816.46	49.63
816.634	46.57
816.807	44.28
816.98	43.87
817.153	44.5
817.327	47.16
817.5	48.31
817.673	48.9
817.846	50.06
818.019	50.99
818.192	51.65
818.365	47.48
818.538	48.29
818.711	50.7
818.884	51.38
819.057	49.99
819.23	48.72
819.403	47.38
819.576	46.78
819.749	47.13
819.922	45.64
820.095	43.93
820.268	45.53
820.441	46.92
820.614	44.6
820.786	43.45
820.959	45.55
821.132	47.63
821.305	47.53
821.477	47.07
821.65	47.51
821.823	48.12
821.996	47.77
822.168	47.72
822.341	47.18
822.514	47.48
822.686	47.99
822.859	48.03
823.031	47.74
823.204	48.07
823.376	47.92
823.549	47.48
823.722	47.17
823.894	47.85
824.067	48.14
824.239	48.37
824.411	48.81
824.584	48.78
824.756	48.47
824.929	48.53
825.101	49.02
825.273	49.54
825.446	49.58
825.618	49.38
825.79	48.79
825.963	48.29
826.135	48.01
826.307	47.08
826.479	47.17
826.652	46.57
826.824	46.1
826.996	45.56
827.168	45.77
827.34	45.98
827.512	46.72
827.684	46.35
827.856	46.29
828.029	46.41
828.201	46.8
828.373	46.69
828.545	47.37
828.717	47.43
828.889	46.05
829.061	46.4
829.232	46.2
829.404	46.43
829.576	46.61
829.748	47.09
829.92	47.56
830.092	49.57
830.264	49.51
830.436	49.06
830.607	49.22
830.779	51.62
830.951	50.82
831.123	51.69
831.294	49.36
831.466	49.75
831.638	48.29
831.809	47.61
831.981	43.55
832.153	42.09
832.324	43.69
832.496	43.74
832.667	45.41
832.839	45.78
833.011	44.64
833.182	45.29
833.354	43.94
833.525	44.7
833.697	44.08
833.868	46
834.039	47.13
834.211	46.73
834.382	45.43
834.554	45.08
834.725	45.18
834.896	46.05
835.068	46.09
835.239	45.98
835.41	45.81
835.581	47.06
835.753	45.97
835.924	45.89
836.095	44.52
836.266	46.64
836.438	44.64
836.609	44.21
836.78	43.9
836.951	43.79
837.122	43.8
837.293	42.87
837.464	41
837.635	42.51
837.806	43.22
837.977	44.98
838.148	42.98
838.319	41.46
838.49	40.92
838.661	42.48
838.832	41.07
839.003	44.09
839.174	46.08
839.345	46.58
839.516	45.56
839.687	46.36
839.857	44.94
840.028	41.17
840.199	41.67
840.37	41.38
840.54	36.92
840.711	38.92
840.882	38.94
841.053	40.48
841.223	41.25
841.394	39.91
841.564	34.85
841.735	34.61
841.906	40.7
842.076	42.38
842.247	44.97
842.417	49.88
842.588	50
842.758	46.19
842.929	44.58
843.099	44.5
843.27	46.27
843.44	47.19
843.611	49.66
843.781	45.76
843.951	45.21
844.122	41.38
844.292	38.93
844.462	40.08
844.633	41.22
844.803	39.15
844.973	36.15
845.144	35.65
845.314	32.17
845.484	29.37
845.654	32.44
845.824	42.65
845.995	43.37
846.165	36.66
846.335	41.82
846.505	41.21
846.675	43.57
846.845	45.21
847.015	36.53
847.185	41.92
847.355	44.01
847.525	47.42
847.695	38.65
847.865	44.11
848.035	39.72
848.205	27.64
848.375	26.7
848.545	30.02
848.715	35.33
848.884	38.42
849.054	38.21
849.224	40.16
849.394	44
849.564	38.99
849.733	35.42
849.903	41.06
850.073	45.27
850.243	46.18
850.412	50.84
850.582	54.07
850.752	58.26
850.921	60.66
851.091	57.33
851.26	52.27
851.43	57.89
851.599	58.11
851.769	59.95
851.939	63.32
852.108	65.73
852.278	58.34
852.447	60.68
852.616	57.85
852.786	60.23
852.955	57.19
853.125	55.1
853.294	52.77
853.463	58.9
853.633	61.16
853.802	69.95
853.971	66.61
854.141	67.39
854.31	56.81
854.479	62.7
854.648	51.39
854.818	50.11
854.987	50.06
855.156	42.6
855.325	34.96
855.494	40.63
855.663	27.1
855.832	29.49
856.001	25.37
856.171	24.85
856.34	21.29
856.509	25.22
856.678	30.46
856.847	39.46
857.016	48.54
857.185	52.34
857.353	42.11
857.522	43.64
857.691	44.66
857.86	50.71
858.029	51.92
858.198	52.98
858.367	51.64
858.535	51.32
858.704	53.82
858.873	45.28
859.042	37.82
859.21	37.75
859.379	43.11
859.548	37.4
859.717	22.49
859.885	23.01
860.054	19.28
860.222	4.83
860.391	17.44
860.56	12
860.728	18.82
860.897	25.75
861.065	19.78
861.234	14.48
861.402	12.2
861.571	20.12
861.739	18.25
861.908	19.44
862.076	29.11
862.244	25.95
862.413	35.45
862.581	33.65
862.749	36.91
862.918	44.42
863.086	46.95
863.254	51.23
863.423	49.43
863.591	48.33
863.759	46.44
863.927	40.2
864.096	35.95
864.264	23.8
864.432	32
864.6	27.96
864.768	22.21
864.936	24.4
865.104	15.39
865.272	26.07
865.44	31.36
865.608	29
865.776	31.67
865.944	21.58
866.112	20.56
866.28	19.89
866.448	18.55
866.616	32.38
866.784	19.63
866.952	23.1
867.12	18.9
867.288	20.93
867.455	29.02
867.623	26.85
867.791	38.59
867.959	48.15
868.127	47.19
868.294	54
868.462	48.97
868.63	60.21
868.797	69.1
868.965	74.27
869.133	70.37
869.3	73.87
869.468	74.56
869.636	70.6
869.803	58.53
869.971	57.67
870.138	42.14
870.306	46.74
870.473	36.07
870.641	32.03
870.808	29.13
870.975	27.6
871.143	18.66
871.31	23.83
871.478	26.76
871.645	32.88
871.812	39.09
871.98	40.61
872.147	41.62
872.314	50.34
872.482	41.68
872.649	43.83
872.816	52.29
872.983	55.02
873.15	43.77
873.318	41.08
873.485	46.11
873.652	37.27
873.819	35.35
873.986	28.95
874.153	29.56
874.32	31.95
874.487	31.73
874.654	23
874.821	24.37
874.988	31.52
875.155	30.7
875.322	20.11
875.489	17.49
875.656	14.47
875.823	24.87
875.99	27.16
876.157	32.1
876.324	32.4
876.49	32.63
876.657	33.98
876.824	33.08
876.991	42.37
877.157	48.6
877.324	51.89
877.491	56.56
877.658	60.31
877.824	63.79
877.991	65.47
878.157	69.67
878.324	83.99
878.491	83.55
878.657	78.74
878.824	87.74
878.99	86.21
879.157	81.81
879.323	84.99
879.49	76.19
879.656	78.16
879.823	74.87
879.989	66.99
880.156	63.17
880.322	58.77
880.488	58.89
880.655	50.56
880.821	51.43
880.987	51.59
881.154	51.38
881.32	52.5
881.486	50.17
881.652	49.67
881.819	51.1
881.985	48.9
882.151	54.99
882.317	55.43
882.483	57.02
882.649	54.58
882.816	53.35
882.982	54.77
883.148	53.17
883.314	53.07
883.48	52.46
883.646	52.6
883.812	54.11
883.978	51.52
884.144	51.06
884.31	50.44
884.476	50.28
884.642	51.13
884.807	47.84
884.973	49.22
885.139	49.01
885.305	48.6
885.471	48.12
885.637	46.24
885.802	46.99
885.968	47.29
886.134	46.99
886.3	48.24
886.465	48.27
886.631	49.14
886.797	48.68
886.962	46.55
887.128	48.26
887.293	50.91
887.459	54.56
887.625	56.51
887.79	60.8
887.956	54.14
888.121	53.53
888.287	53.59
888.452	60.23
888.618	58.11
888.783	65.43
