Data from LC_212__Reflection_3.txt Node
Date: Thu Nov 19 12:37:25 EST 2015
User: robert
Spectrometer: USB4E03001
Autoset integration time: false
Trigger mode: 4
Integration Time (sec): 1.000000E-1
Scans to average: 15
Electric dark correction enabled: true
Nonlinearity correction enabled: false
Boxcar width: 5
Stray light correction enabled: false
XAxis mode: Wavelengths
Stop averaging: false
Number of Pixels in Spectrum: 3648
>>>>>Begin Spectral Data<<<<<
177.566	644.15
177.785	-772.87
178.005	264.1
178.225	127.66
178.445	92.65
178.665	102.26
178.885	16.54
179.105	-219.23
179.324	-98.32
179.544	-203.38
179.764	188.51
179.984	726.63
180.204	499.08
180.423	176.92
180.643	143.23
180.863	118.09
181.083	131.63
181.302	146.8
181.522	153.39
181.742	46.51
181.961	18.83
182.181	20
182.401	29.01
182.621	8.06
182.84	25.3
183.06	24.08
183.279	18.63
183.499	22.84
183.719	15.36
183.938	35.42
184.158	132.82
184.377	188.16
184.597	325.36
184.816	-207.77
185.036	-184.28
185.256	-87.95
185.475	-4.53
185.695	8.86
185.914	8.32
186.134	-39.26
186.353	-36.35
186.572	-177.57
186.792	-172.15
187.011	873.16
187.231	550.55
187.45	312.51
187.67	138.13
187.889	214.96
188.108	983.96
188.328	237.93
188.547	-2.62
188.766	-49.76
188.986	50.03
189.205	68.51
189.424	43.91
189.644	32.24
189.863	66.08
190.082	15.67
190.302	18.31
190.521	57.39
190.74	14.63
190.959	-468.23
191.178	-192.31
191.398	-118.09
191.617	-264.39
191.836	-130.27
192.055	33.56
192.274	-50.68
192.494	-10.33
192.713	-19.99
192.932	-10.44
193.151	86.64
193.37	85.52
193.589	-33.58
193.808	107.07
194.027	-53.85
194.246	146.62
194.465	64.75
194.685	290.11
194.904	-52.65
195.123	-265.75
195.342	-80.17
195.561	34.75
195.78	78.4
195.999	-316.33
196.218	490.6
196.436	-6030.77
196.655	678.72
196.874	135.61
197.093	170.9
197.312	128.38
197.531	451.24
197.75	804.04
197.969	230.14
198.188	-1896.15
198.407	13.7
198.625	43.59
198.844	30.19
199.063	106.79
199.282	89.37
199.501	65.45
199.719	74.02
199.938	102.74
200.157	59.58
200.376	49.75
200.594	33.63
200.813	54.02
201.032	69.8
201.251	128.82
201.469	38.99
201.688	93.75
201.907	142.25
202.125	102.99
202.344	80.28
202.563	105.28
202.781	112.85
203	144.41
203.218	129.16
203.437	185.58
203.656	242.33
203.874	1068.78
204.093	409.42
204.311	-461.91
204.53	-64.05
204.748	-40.14
204.967	-30.06
205.185	-25.77
205.404	-22.26
205.622	-23.68
205.841	-77.43
206.059	-325.37
206.278	-6456.8
206.496	-621.73
206.715	-3206.92
206.933	319.54
207.151	122.53
207.37	130.15
207.588	221.33
207.806	160.87
208.025	176.63
208.243	197.21
208.461	374.23
208.68	455.42
208.898	150.55
209.116	-6809.62
209.335	370.87
209.553	-283.18
209.771	-166.69
209.989	-445.04
210.208	-206.51
210.426	-543.57
210.644	502.66
210.862	388.82
211.081	642.69
211.299	338.32
211.517	304.01
211.735	6142.31
211.953	436.38
212.171	219.78
212.39	176.92
212.608	114.3
212.826	137.15
213.044	301.67
213.262	272.93
213.48	182.16
213.698	312.28
213.916	191.36
214.134	196.74
214.352	227.3
214.57	247.68
214.788	440.13
215.006	-4064.9
215.224	-242.71
215.442	-99.1
215.66	-58.7
215.878	-103.35
216.096	-111.91
216.314	-118.39
216.532	-124.83
216.75	-84.48
216.968	-47.4
217.185	-39.85
217.403	-10.47
217.621	-90.79
217.839	-61.36
218.057	-64.89
218.275	-2.01
218.492	9.01
218.71	21.34
218.928	22.72
219.146	17.42
219.363	10.72
219.581	4.54
219.799	-17.97
220.017	1.1
220.234	-21.47
220.452	-7.49
220.67	-159.17
220.887	-82.56
221.105	-9.46
221.323	43.05
221.54	70.92
221.758	59.32
221.976	17.22
222.193	38.02
222.411	48.34
222.629	39.05
222.846	41.76
223.064	39.4
223.281	25.34
223.499	5.8
223.716	-17.73
223.934	-56.99
224.151	-57.06
224.369	-57.69
224.586	-43.14
224.804	-263.19
225.021	-165.46
225.239	-179.32
225.456	-147.6
225.674	-114.12
225.891	-27.99
226.108	0.6
226.326	13.95
226.543	1.41
226.76	1.54
226.978	-32.81
227.195	-0.24
227.413	-1.11
227.63	-7.58
227.847	-2.11
228.064	4.95
228.282	6.35
228.499	-3.1
228.716	-0.55
228.934	0.33
229.151	3.41
229.368	4.45
229.585	0.31
229.802	-0.18
230.02	3.59
230.237	1.79
230.454	0.17
230.671	-4.01
230.888	-1.23
231.105	-0.08
231.323	2.1
231.54	2.52
231.757	1.35
231.974	4.81
232.191	15.08
232.408	14.52
232.625	11.3
232.842	12.75
233.059	16.39
233.276	18.51
233.493	11.01
233.71	13.49
233.927	3.91
234.144	6.51
234.361	4.55
234.578	-1.75
234.795	-6.84
235.012	-2.63
235.229	-7.68
235.446	-4.6
235.663	-9.8
235.879	-0.04
236.096	-0.25
236.313	0.38
236.53	-0.01
236.747	1.56
236.964	-0.11
237.181	7.33
237.397	4.44
237.614	15.52
237.831	11.9
238.048	13.09
238.264	4.82
238.481	11.99
238.698	21.18
238.915	22.15
239.131	16.59
239.348	18.25
239.565	17.6
239.781	17.52
239.998	14.55
240.215	17.51
240.431	18.64
240.648	18.2
240.865	18.32
241.081	17.29
241.298	15.95
241.514	17.99
241.731	18.29
241.947	17.35
242.164	16.03
242.38	14.6
242.597	12.11
242.814	11.53
243.03	10.13
243.246	7.04
243.463	5.86
243.679	7.8
243.896	9.57
244.112	9.34
244.329	7.88
244.545	11.77
244.762	10.71
244.978	12.7
245.194	12.98
245.411	13.41
245.627	16.75
245.843	17.93
246.06	13.62
246.276	10.33
246.492	9.68
246.709	9.43
246.925	7.63
247.141	7.76
247.357	7.92
247.574	8.51
247.79	8.97
248.006	7.72
248.222	6.57
248.439	7.49
248.655	7.98
248.871	7.62
249.087	7.86
249.303	7.55
249.519	7.22
249.736	6.63
249.952	6.03
250.168	7.14
250.384	6.13
250.6	6.29
250.816	6.4
251.032	4.58
251.248	3.76
251.464	4.54
251.68	6.74
251.896	8.98
252.112	7.99
252.328	6.34
252.544	4.83
252.76	6.54
252.976	6.72
253.192	5.54
253.408	7.75
253.624	7.67
253.84	6.59
254.056	6.57
254.272	5.48
254.487	5.99
254.703	5.65
254.919	6.03
255.135	4.95
255.351	3.92
255.567	2.2
255.782	1.74
255.998	-2.02
256.214	-3.54
256.43	-4.42
256.646	-4.78
256.861	-5.09
257.077	-3.46
257.293	-3.54
257.508	-3.32
257.724	-0.89
257.94	1.54
258.155	1.3
258.371	3.95
258.587	3.3
258.802	4.92
259.018	5.62
259.234	6.45
259.449	6.75
259.665	7.25
259.88	7.65
260.096	6.82
260.312	6.01
260.527	5.54
260.743	5.81
260.958	7.07
261.174	5.67
261.389	5.28
261.605	5.26
261.82	4.59
262.036	2.52
262.251	2.26
262.466	2.23
262.682	2.42
262.897	2.25
263.113	2.56
263.328	1.36
263.543	1.07
263.759	1.87
263.974	0.05
264.189	-0.86
264.405	1.13
264.62	1.15
264.835	2.56
265.051	2.95
265.266	4.27
265.481	1.15
265.696	0.99
265.912	2.13
266.127	1.98
266.342	2.16
266.557	2.73
266.773	4.4
266.988	3.45
267.203	2.92
267.418	2.77
267.633	2.34
267.848	3.09
268.064	2.61
268.279	2.29
268.494	2.67
268.709	4.42
268.924	5.51
269.139	4.27
269.354	3.95
269.569	3.22
269.784	2.89
269.999	4.05
270.214	5.03
270.429	8.07
270.644	8.79
270.859	8.08
271.074	6.23
271.289	5.67
271.504	5.92
271.719	6.58
271.934	5.99
272.149	5.42
272.363	4.7
272.578	4.32
272.793	2.54
273.008	3.6
273.223	3.33
273.438	4.2
273.653	3.97
273.867	4.57
274.082	4.77
274.297	6.75
274.512	7.87
274.726	9.19
274.941	10.74
275.156	10.85
275.371	10.58
275.585	10.72
275.8	9.48
276.015	10.75
276.229	9.95
276.444	10.71
276.659	8.82
276.873	6.48
277.088	4.49
277.302	3.82
277.517	4
277.732	2.39
277.946	2.64
278.161	2.97
278.375	0.84
278.59	0.1
278.804	-0.71
279.019	1.58
279.233	4.37
279.448	4.97
279.662	5.74
279.877	5.42
280.091	5.32
280.306	5.98
280.52	6.07
280.735	6.17
280.949	7.81
281.163	6.75
281.378	4.8
281.592	5.17
281.806	5.62
282.021	4.56
282.235	4.56
282.449	4.84
282.664	3.4
282.878	4.25
283.092	5.69
283.307	5.65
283.521	5.4
283.735	6.01
283.949	5.99
284.164	6.33
284.378	5.39
284.592	6.13
284.806	7.31
285.02	7.56
285.234	6.36
285.449	5.62
285.663	5.03
285.877	5.43
286.091	6.18
286.305	5.8
286.519	5.28
286.733	5.54
286.947	5.02
287.161	3.75
287.375	4.26
287.589	5.43
287.803	4.92
288.017	5.08
288.231	5.05
288.445	4.43
288.659	3.94
288.873	4.63
289.087	4.7
289.301	4.31
289.515	3.35
289.729	3.87
289.943	3.91
290.157	5.48
290.371	6.1
290.584	6.61
290.798	6.99
291.012	7.74
291.226	6.81
291.44	6.9
291.654	6.6
291.867	7.84
292.081	6.58
292.295	5.5
292.509	6.09
292.722	6.21
292.936	6.52
293.15	7.67
293.364	6.98
293.577	6.77
293.791	7.49
294.005	8.85
294.218	9.56
294.432	11.24
294.645	12.32
294.859	9.97
295.073	7.95
295.286	7.6
295.5	6.63
295.713	7.79
295.927	8.37
296.14	7.23
296.354	6.66
296.568	5.58
296.781	4.82
296.994	4.06
297.208	4.34
297.421	5.63
297.635	6.09
297.848	6.1
298.062	5.92
298.275	6.38
298.489	7.01
298.702	7
298.915	7.36
299.129	8.29
299.342	8.85
299.555	10.37
299.769	10.29
299.982	9.87
300.195	9.79
300.409	8.65
300.622	8.35
300.835	8.04
301.048	9.44
301.262	10.42
301.475	8.52
301.688	8.53
301.901	7.69
302.115	7.74
302.328	8.14
302.541	8.33
302.754	9.97
302.967	9.34
303.18	11.43
303.393	9.47
303.607	9.5
303.82	12.11
304.033	12.23
304.246	13.13
304.459	13.3
304.672	13.32
304.885	11.97
305.098	10.61
305.311	11.48
305.524	10.48
305.737	11.2
305.95	10.87
306.163	8.72
306.376	9.33
306.589	8.23
306.802	6.41
307.015	5.92
307.228	6.43
307.44	6.96
307.653	7.04
307.866	7.1
308.079	7.41
308.292	8.32
308.505	8.64
308.718	8.67
308.93	9.21
309.143	10.07
309.356	9.54
309.569	10.63
309.781	10.92
309.994	10.48
310.207	10.39
310.42	10.3
310.632	9.79
310.845	10.37
311.058	9.45
311.27	9.59
311.483	10.12
311.696	10.43
311.908	10.34
312.121	9.76
312.333	10.4
312.546	9.11
312.759	9.06
312.971	8.81
313.184	7.99
313.396	8.43
313.609	7.8
313.821	7.31
314.034	6.92
314.246	6.29
314.459	7.63
314.671	6.77
314.884	7.89
315.096	7.12
315.309	6.94
315.521	7.3
315.733	8.7
315.946	8.65
316.158	9.02
316.371	9.85
316.583	10.67
316.795	10.21
317.008	10.26
317.22	10.39
317.432	10.64
317.644	10.59
317.857	11.51
318.069	11.04
318.281	11.66
318.494	10.51
318.706	10.64
318.918	10.34
319.13	9.94
319.342	10.14
319.555	10.43
319.767	10.41
319.979	11.3
320.191	11.66
320.403	11.83
320.615	10.49
320.827	11.12
321.039	9.96
321.252	9.67
321.464	9.19
321.676	9.13
321.888	7.97
322.1	7.59
322.312	7.91
322.524	7.35
322.736	6.87
322.948	7.41
323.16	7.71
323.372	9.7
323.584	9.86
323.796	9.89
324.007	9.42
324.219	11.03
324.431	12.36
324.643	12.36
324.855	12.29
325.067	12.71
325.279	13.42
325.491	14.13
325.702	13.83
325.914	13.18
326.126	14.19
326.338	14.58
326.55	14.66
326.761	15.19
326.973	15.8
327.185	16.33
327.396	17.03
327.608	16.92
327.82	18.01
328.032	18.57
328.243	21.35
328.455	20.95
328.666	23.36
328.878	23.86
329.09	23.08
329.301	23.42
329.513	23.92
329.725	23.1
329.936	23.14
330.148	23.5
330.359	23.57
330.571	22.7
330.782	24.51
330.994	23.64
331.205	23.5
331.417	24.72
331.628	24.3
331.84	24.51
332.051	25.33
332.262	26.34
332.474	26.14
332.685	27.19
332.897	27.02
333.108	26.34
333.319	26.45
333.531	26.23
333.742	27.29
333.953	27.62
334.165	27.51
334.376	27.08
334.587	27.4
334.799	27.53
335.01	26.69
335.221	27.22
335.432	27.93
335.644	28.48
335.855	29.71
336.066	28.64
336.277	28.19
336.488	29.14
336.7	29.74
336.911	29.91
337.122	29.55
337.333	29.57
337.544	29.76
337.755	30
337.966	29.76
338.177	29
338.388	30.37
338.599	30.95
338.811	30.69
339.022	30.95
339.233	31.1
339.444	30.78
339.655	30.82
339.866	30.49
340.076	30.35
340.287	30.84
340.498	31
340.709	30.44
340.92	30.58
341.131	29.93
341.342	30.34
341.553	30.44
341.764	31
341.975	31.32
342.185	31.12
342.396	31.01
342.607	30.31
342.818	30.79
343.029	30.48
343.239	30.32
343.45	30.43
343.661	29.83
343.872	29.69
344.082	29.71
344.293	29.47
344.504	31.67
344.714	31.33
344.925	31.81
345.136	31.48
345.346	31.78
345.557	32.6
345.768	33.15
345.978	33.87
346.189	33.87
346.399	33.57
346.61	33.38
346.821	31.81
347.031	32.55
347.242	32.04
347.452	32.47
347.663	32.33
347.873	32.38
348.084	31.85
348.294	31.2
348.504	31.2
348.715	32.45
348.925	32.52
349.136	32.19
349.346	31.76
349.557	31.69
349.767	31.67
349.977	31.49
350.188	30.35
350.398	29.69
350.608	29.33
350.819	28.82
351.029	27.15
351.239	27.26
351.449	27.38
351.66	27.27
351.87	27.61
352.08	27.15
352.29	27.74
352.501	27.64
352.711	28.74
352.921	28.57
353.131	28.88
353.341	29.84
353.552	29.57
353.762	29.33
353.972	29.3
354.182	29.07
354.392	28.65
354.602	28.73
354.812	29.63
355.022	29.72
355.232	30.34
355.442	31.09
355.652	31.25
355.862	30.74
356.072	30.63
356.282	30.66
356.492	30.2
356.702	30.71
356.912	30.49
357.122	29.89
357.332	30.28
357.542	30.11
357.752	29.59
357.962	28.77
358.171	29.47
358.381	29.77
358.591	29.68
358.801	30.6
359.011	30.3
359.221	30.2
359.43	30.64
359.64	30.41
359.85	30.6
360.06	31.03
360.269	31.65
360.479	31.87
360.689	32.13
360.899	32.3
361.108	32.2
361.318	32.47
361.528	31.69
361.737	31.34
361.947	31.08
362.156	30.82
362.366	30.19
362.576	30.08
362.785	29.7
362.995	29.59
363.204	29.37
363.414	28.82
363.623	28.32
363.833	28.77
364.042	28.97
364.252	28.74
364.461	28.87
364.671	28.72
364.88	28.34
365.09	28.55
365.299	28.03
365.509	27.58
365.718	27.58
365.927	28.16
366.137	27.93
366.346	26.81
366.555	26.37
366.765	25.81
366.974	26.43
367.183	26.66
367.393	25.96
367.602	26.5
367.811	27.13
368.021	26.93
368.23	26.08
368.439	25.79
368.648	26.74
368.857	27.59
369.067	27.42
369.276	27.05
369.485	26.55
369.694	27.09
369.903	26.57
370.112	26.46
370.321	26.47
370.531	27.24
370.74	27.87
370.949	28.04
371.158	27.7
371.367	28
371.576	27.27
371.785	26.89
371.994	26.75
372.203	26.99
372.412	26.65
372.621	26.81
372.83	26.62
373.039	26.28
373.248	26.2
373.457	26.29
373.666	26.12
373.874	26.7
374.083	27.35
374.292	27.54
374.501	27.26
374.71	27.2
374.919	27.02
375.128	26.33
375.336	26.22
375.545	25.82
375.754	25.66
375.963	25.63
376.171	25.35
376.38	25.3
376.589	24.99
376.798	24.85
377.006	25.42
377.215	25.48
377.424	25.55
377.632	25.77
377.841	25.8
378.05	25.73
378.258	25.95
378.467	26
378.675	25.52
378.884	26.02
379.093	25.93
379.301	25.42
379.51	24.94
379.718	25.17
379.927	24.86
380.135	24.89
380.344	24.43
380.552	24.6
380.761	24.51
380.969	24.78
381.177	23.91
381.386	23.54
381.594	23.05
381.803	23.63
382.011	23.59
382.219	23.82
382.428	23.45
382.636	23.64
382.845	23.26
383.053	23.29
383.261	23.55
383.469	24.08
383.678	24.31
383.886	24.19
384.094	23.83
384.302	23.48
384.511	23
384.719	23.32
384.927	22.92
385.135	22.82
385.343	22.97
385.552	22.49
385.76	21.97
385.968	21.82
386.176	22.02
386.384	21.87
386.592	22.09
386.8	22.14
387.008	22.12
387.216	22.26
387.424	22.51
387.633	22.01
387.841	21.77
388.049	21.93
388.257	21.76
388.465	21.75
388.672	21.9
388.88	21.51
389.088	21.23
389.296	20.87
389.504	20.9
389.712	20.77
389.92	21.04
390.128	20.76
390.336	20.78
390.544	20.95
390.751	20.91
390.959	21.11
391.167	21.62
391.375	21.87
391.583	21.83
391.79	21.94
391.998	21.7
392.206	21.4
392.414	21.62
392.621	21.52
392.829	21.65
393.037	21.56
393.244	21.45
393.452	21.19
393.66	21.04
393.867	21.04
394.075	20.61
394.283	20.68
394.49	20.59
394.698	21.1
394.905	20.94
395.113	20.58
395.32	20.33
395.528	19.92
395.735	19.61
395.943	19.35
396.15	19.23
396.358	19.44
396.565	19.26
396.773	19.4
396.98	18.75
397.188	18.83
397.395	18.73
397.602	18.62
397.81	18.63
398.017	18.81
398.225	19.26
398.432	19.37
398.639	19.34
398.847	19.19
399.054	19.01
399.261	19.4
399.468	19.15
399.676	19.42
399.883	19.66
400.09	19.67
400.297	19.7
400.505	19.39
400.712	19.42
400.919	19.04
401.126	19.24
401.333	19.55
401.54	19.12
401.748	19.34
401.955	19.28
402.162	19.3
402.369	19.15
402.576	19.18
402.783	19.18
402.99	18.77
403.197	19.04
403.404	18.66
403.611	18.6
403.818	18.81
404.025	18.67
404.232	18.39
404.439	18.4
404.646	18.43
404.853	18.4
405.06	18.31
405.267	18.61
405.474	18.74
405.681	19.04
405.887	18.67
406.094	18.52
406.301	18.47
406.508	18.56
406.715	18.66
406.922	18.77
407.128	18.37
407.335	18.37
407.542	18.32
407.749	18.39
407.955	18.18
408.162	18.27
408.369	18.46
408.575	18.56
408.782	18.52
408.989	18.32
409.195	18.28
409.402	18.42
409.609	18.33
409.815	18.27
410.022	17.89
410.228	18.08
410.435	17.98
410.642	17.9
410.848	17.86
411.055	17.65
411.261	17.79
411.468	17.8
411.674	17.95
411.881	18.19
412.087	18.36
412.294	18.68
412.5	18.68
412.706	18.86
412.913	18.62
413.119	18.61
413.326	19.13
413.532	18.92
413.738	19.01
413.945	18.75
414.151	18.78
414.357	18.55
414.564	18.26
414.77	18.33
414.976	18.24
415.182	18.48
415.389	18.41
415.595	18.1
415.801	18.27
416.007	18.07
416.214	18.19
416.42	17.98
416.626	17.81
416.832	17.77
417.038	17.49
417.244	17.7
417.45	17.63
417.657	17.58
417.863	17.74
418.069	17.78
418.275	17.94
418.481	17.91
418.687	18.04
418.893	18.11
419.099	18.14
419.305	18.21
419.511	18.03
419.717	17.95
419.923	18.09
420.129	17.88
420.335	17.71
420.541	17.53
420.746	17.56
420.952	17.56
421.158	17.59
421.364	17.59
421.57	17.49
421.776	17.54
421.982	17.59
422.187	17.37
422.393	17.36
422.599	17.27
422.805	17.44
423.01	17.3
423.216	17.19
423.422	17.16
423.628	17.18
423.833	17.17
424.039	17.23
424.245	17.23
424.45	17.35
424.656	17.57
424.862	17.66
425.067	17.53
425.273	17.53
425.478	17.62
425.684	17.62
425.889	17.55
426.095	17.67
426.301	17.67
426.506	17.7
426.712	17.7
426.917	17.45
427.123	17.48
427.328	17.53
427.533	17.68
427.739	17.61
427.944	17.57
428.15	17.63
428.355	17.62
428.561	17.42
428.766	17.29
428.971	17.26
429.177	17.49
429.382	17.51
429.587	17.49
429.793	17.62
429.998	17.62
430.203	17.4
430.408	17.38
430.614	17.35
430.819	17.4
431.024	17.52
431.229	17.53
431.434	17.45
431.64	17.31
431.845	17.27
432.05	17.14
432.255	17.12
432.46	17.34
432.665	17.24
432.87	17.21
433.076	17.18
433.281	16.97
433.486	17.14
433.691	17.14
433.896	17.15
434.101	17.11
434.306	17.12
434.511	17.03
434.716	16.96
434.921	16.95
435.126	16.96
435.331	17.05
435.535	16.95
435.74	16.88
435.945	16.83
436.15	16.96
436.355	17.27
436.56	17.11
436.765	17.28
436.97	17.45
437.174	17.42
437.379	17.4
437.584	17.62
437.789	17.74
437.993	17.8
438.198	17.94
438.403	18.05
438.608	17.9
438.812	18.04
439.017	17.95
439.222	17.87
439.426	17.83
439.631	17.81
439.836	17.62
440.04	17.68
440.245	17.58
440.45	17.3
440.654	17.25
440.859	17.17
441.063	17.08
441.268	17.11
441.472	17.14
441.677	17.14
441.881	17.09
442.086	17.11
442.29	17.19
442.495	17.22
442.699	17.38
442.904	17.26
443.108	17.2
443.312	17.2
443.517	17.08
443.721	16.96
443.925	17.06
444.13	17.11
444.334	17.06
444.538	16.96
444.743	16.87
444.947	16.85
445.151	16.79
445.356	16.97
445.56	17.03
445.764	17.19
445.968	17.29
446.173	17.25
446.377	17.19
446.581	17.19
446.785	17.17
446.989	17.08
447.193	16.99
447.398	17.09
447.602	16.96
447.806	16.97
448.01	16.87
448.214	16.81
448.418	16.77
448.622	16.75
448.826	16.75
449.03	16.79
449.234	16.8
449.438	16.83
449.642	16.69
449.846	16.85
450.05	16.69
450.254	16.47
450.458	16.38
450.662	16.38
450.866	16.49
451.069	16.72
451.273	16.71
451.477	16.64
451.681	16.82
451.885	16.93
452.089	16.83
452.292	17
452.496	17.26
452.7	17.24
452.904	17.21
453.107	17.19
453.311	16.92
453.515	16.83
453.719	16.86
453.922	16.94
454.126	16.67
454.33	16.53
454.533	16.46
454.737	16.27
454.94	16.4
455.144	16.47
455.348	16.35
455.551	16.54
455.755	16.36
455.958	16.35
456.162	16.27
456.365	16.25
456.569	16.37
456.772	16.39
456.976	16.45
457.179	16.32
457.383	16.44
457.586	16.46
457.79	16.19
457.993	16.61
458.196	16.7
458.4	16.63
458.603	16.84
458.807	16.75
459.01	16.75
459.213	16.74
459.417	16.86
459.62	16.78
459.823	16.89
460.026	17
460.23	16.8
460.433	16.78
460.636	16.77
460.839	16.78
461.042	16.83
461.246	16.71
461.449	16.79
461.652	16.65
461.855	16.57
462.058	16.44
462.261	16.44
462.464	16.51
462.668	16.32
462.871	16.26
463.074	16.2
463.277	16.15
463.48	16.31
463.683	16.31
463.886	16.58
464.089	16.7
464.292	16.6
464.495	16.54
464.698	16.49
464.901	16.91
465.104	16.94
465.306	16.99
465.509	17.06
465.712	17.03
465.915	16.95
466.118	16.66
466.321	16.65
466.524	17
466.726	17.03
466.929	17.03
467.132	16.9
467.335	16.88
467.538	16.86
467.74	16.7
467.943	16.74
468.146	16.64
468.348	16.69
468.551	16.62
468.754	16.49
468.956	16.38
469.159	16.42
469.362	16.37
469.564	16.51
469.767	16.45
469.969	16.67
470.172	16.73
470.375	16.92
470.577	16.82
470.78	16.92
470.982	17.02
471.185	17.07
471.387	17.11
471.59	17
471.792	16.78
471.995	16.84
472.197	16.86
472.399	16.76
472.602	16.73
472.804	16.92
473.007	16.96
473.209	16.7
473.411	16.85
473.614	16.66
473.816	16.86
474.018	17.01
474.22	16.94
474.423	16.94
474.625	16.98
474.827	17.04
475.03	16.99
475.232	16.87
475.434	16.91
475.636	16.75
475.838	17
476.04	16.88
476.243	17.03
476.445	17.15
476.647	17.14
476.849	17.03
477.051	16.91
477.253	16.74
477.455	16.7
477.657	16.89
477.859	17.01
478.061	17.01
478.263	17.04
478.465	16.9
478.667	16.82
478.869	16.9
479.071	17.07
479.273	17.17
479.475	17.13
479.677	17.22
479.879	17.11
480.081	16.98
480.283	16.96
480.485	16.98
480.686	17
480.888	16.9
481.09	16.66
481.292	16.61
481.494	16.56
481.695	16.65
481.897	16.56
482.099	16.55
482.301	16.56
482.502	16.46
482.704	16.49
482.906	16.46
483.107	16.55
483.309	16.59
483.511	16.62
483.712	16.61
483.914	16.63
484.115	16.68
484.317	16.66
484.519	16.64
484.72	16.67
484.922	16.63
485.123	16.67
485.325	16.67
485.526	16.7
485.728	16.65
485.929	16.65
486.131	16.64
486.332	16.56
486.534	16.56
486.735	16.58
486.936	16.55
487.138	16.54
487.339	16.54
487.541	16.58
487.742	16.53
487.943	16.55
488.144	16.6
488.346	16.59
488.547	16.62
488.748	16.63
488.95	16.68
489.151	16.75
489.352	16.72
489.553	16.7
489.755	16.57
489.956	16.68
490.157	16.71
490.358	16.6
490.559	16.72
490.76	16.8
490.961	16.81
491.163	16.74
491.364	16.72
491.565	16.76
491.766	16.79
491.967	16.86
492.168	16.83
492.369	16.8
492.57	16.86
492.771	16.84
492.972	16.84
493.173	16.9
493.374	16.99
493.575	17
493.776	17.12
493.976	17.1
494.177	17.05
494.378	16.98
494.579	16.94
494.78	16.97
494.981	16.78
495.182	16.76
495.382	16.68
495.583	16.7
495.784	16.65
495.985	16.62
496.185	16.66
496.386	16.76
496.587	16.81
496.788	16.88
496.988	17.06
497.189	17.25
497.39	17.34
497.59	17.5
497.791	17.52
497.992	17.66
498.192	17.62
498.393	17.64
498.593	17.64
498.794	17.54
498.994	17.64
499.195	17.43
499.395	17.39
499.596	17.37
499.796	17.33
499.997	17.33
500.197	17.35
500.398	17.45
500.598	17.53
500.799	17.55
500.999	17.75
501.199	17.81
501.4	17.92
501.6	17.86
501.801	17.82
502.001	17.84
502.201	17.9
502.402	17.89
502.602	17.98
502.802	18.1
503.002	18.25
503.203	18.27
503.403	18.19
503.603	18.38
503.803	18.53
504.003	18.54
504.204	18.36
504.404	18.41
504.604	18.48
504.804	18.4
505.004	18.39
505.204	18.34
505.404	18.45
505.604	18.59
505.804	18.62
506.005	18.79
506.205	18.83
506.405	19.06
506.605	19.02
506.805	19.05
507.005	19.09
507.204	19.05
507.404	19.09
507.604	19.19
507.804	19.1
508.004	19.11
508.204	19.2
508.404	19.27
508.604	19.24
508.804	19.38
509.003	19.44
509.203	19.58
509.403	19.66
509.603	19.87
509.803	19.82
510.002	19.83
510.202	19.9
510.402	19.96
510.602	20.07
510.801	20.32
511.001	20.41
511.201	20.55
511.4	20.55
511.6	20.49
511.8	20.47
511.999	20.66
512.199	20.88
512.398	20.98
512.598	20.92
512.797	20.97
512.997	20.96
513.197	21
513.396	21.02
513.596	21.1
513.795	21.32
513.994	21.38
514.194	21.4
514.393	21.38
514.593	21.34
514.792	21.45
514.992	21.59
515.191	21.69
515.39	21.74
515.59	21.71
515.789	21.89
515.988	22.03
516.188	22.16
516.387	22.3
516.586	22.36
516.786	22.49
516.985	22.67
517.184	22.67
517.383	22.8
517.582	22.93
517.782	23
517.981	23.05
518.18	23.03
518.379	23.17
518.578	23.13
518.777	23.33
518.976	23.52
519.176	23.44
519.375	23.49
519.574	23.54
519.773	23.58
519.972	23.75
520.171	23.8
520.37	23.98
520.569	23.93
520.768	24.12
520.967	24.12
521.166	24.07
521.365	24.31
521.564	24.46
521.762	24.6
521.961	24.55
522.16	24.49
522.359	24.58
522.558	24.65
522.757	24.89
522.956	24.87
523.154	24.9
523.353	24.94
523.552	24.96
523.751	25.05
523.949	25.13
524.148	25.34
524.347	25.5
524.546	25.65
524.744	25.64
524.943	25.59
525.142	25.64
525.34	25.78
525.539	25.9
525.737	26.03
525.936	26.09
526.135	26.12
526.333	26.15
526.532	26.29
526.73	26.37
526.929	26.47
527.127	26.58
527.326	26.74
527.524	26.8
527.723	26.84
527.921	26.85
528.12	26.9
528.318	26.95
528.516	27.09
528.715	27.13
528.913	27.16
529.112	27.27
529.31	27.33
529.508	27.41
529.707	27.47
529.905	27.57
530.103	27.65
530.301	27.73
530.5	27.82
530.698	27.78
530.896	27.86
531.094	27.89
531.293	27.87
531.491	27.99
531.689	28.04
531.887	28.05
532.085	28.07
532.283	28.1
532.481	28.19
532.68	28.21
532.878	28.32
533.076	28.44
533.274	28.56
533.472	28.73
533.67	28.75
533.868	28.79
534.066	28.9
534.264	29.05
534.462	29.14
534.66	29.24
534.858	29.27
535.056	29.37
535.253	29.4
535.451	29.54
535.649	29.55
535.847	29.57
536.045	29.5
536.243	29.44
536.441	29.45
536.638	29.5
536.836	29.45
537.034	29.65
537.232	29.69
537.43	29.7
537.627	29.75
537.825	29.75
538.023	29.87
538.22	30.01
538.418	30.3
538.616	30.23
538.813	30.32
539.011	30.52
539.209	30.45
539.406	30.54
539.604	30.57
539.801	30.59
539.999	30.63
540.196	30.65
540.394	30.79
540.591	30.74
540.789	30.81
540.986	30.9
541.184	30.92
541.381	30.95
541.579	31.01
541.776	30.95
541.974	30.98
542.171	31.07
542.368	31.06
542.566	31.03
542.763	31.14
542.96	31.25
543.158	31.24
543.355	31.19
543.552	31.26
543.75	31.38
543.947	31.58
544.144	31.67
544.341	31.71
544.539	31.84
544.736	32.02
544.933	31.89
545.13	31.81
545.327	31.94
545.524	31.93
545.722	32.11
545.919	32.09
546.116	32.08
546.313	32.14
546.51	32.15
546.707	32.21
546.904	32.17
547.101	32.41
547.298	32.56
547.495	32.65
547.692	32.84
547.889	32.73
548.086	32.66
548.283	32.84
548.48	32.72
548.677	32.79
548.874	32.76
549.07	32.73
549.267	32.67
549.464	32.64
549.661	32.56
549.858	32.59
550.055	32.89
550.251	33.09
550.448	32.97
550.645	33.3
550.842	33.45
551.038	33.57
551.235	33.8
551.432	33.86
551.628	33.82
551.825	33.9
552.022	33.8
552.218	33.92
552.415	33.94
552.612	34.21
552.808	34.18
553.005	34.08
553.201	34.06
553.398	34.11
553.594	34.19
553.791	34.29
553.987	34.26
554.184	34.32
554.38	34.2
554.577	34.32
554.773	34.17
554.97	34.07
555.166	34.23
555.362	34.32
555.559	34.31
555.755	34.28
555.952	34.38
556.148	34.64
556.344	34.72
556.541	34.86
556.737	34.75
556.933	34.93
557.129	35.08
557.326	35.12
557.522	35.12
557.718	35.32
557.914	35.6
558.11	35.61
558.307	35.42
558.503	35.58
558.699	35.58
558.895	35.63
559.091	35.62
559.287	35.57
559.483	35.68
559.679	35.96
559.876	35.81
560.072	35.73
560.268	36.13
560.464	36.4
560.66	36.59
560.856	36.54
561.052	36.58
561.247	36.77
561.443	37.14
561.639	37.2
561.835	37.13
562.031	36.98
562.227	37.12
562.423	36.82
562.619	36.74
562.815	36.56
563.01	36.73
563.206	36.84
563.402	36.75
563.598	36.59
563.793	36.49
563.989	36.54
564.185	37.01
564.381	37.03
564.576	37.43
564.772	37.49
564.968	37.63
565.163	37.68
565.359	37.78
565.555	37.87
565.75	37.94
565.946	38.17
566.141	38.15
566.337	38.08
566.532	38.18
566.728	38.06
566.923	38.09
567.119	38.15
567.314	37.97
567.51	37.93
567.705	37.81
567.901	37.91
568.096	37.84
568.292	37.92
568.487	37.92
568.682	38.06
568.878	38.04
569.073	38.11
569.268	38.06
569.464	38.39
569.659	38.48
569.854	38.78
570.05	38.67
570.245	38.78
570.44	38.85
570.635	38.86
570.831	38.71
571.026	38.75
571.221	38.63
571.416	38.72
571.611	38.56
571.806	38.45
572.002	38.42
572.197	38.31
572.392	38.45
572.587	38.48
572.782	38.69
572.977	38.69
573.172	38.66
573.367	38.78
573.562	38.88
573.757	38.94
573.952	39.27
574.147	39.33
574.342	39.53
574.537	39.3
574.732	39.38
574.927	39.17
575.121	39.35
575.316	39.4
575.511	39.51
575.706	39.43
575.901	39.43
576.096	39.33
576.29	39.54
576.485	39.38
576.68	39.52
576.875	39.63
577.069	39.76
577.264	39.69
577.459	39.7
577.654	39.79
577.848	39.98
578.043	40.22
578.238	40.28
578.432	40.2
578.627	40.55
578.821	40.79
579.016	40.93
579.21	40.96
579.405	41.12
579.6	41.33
579.794	41.17
579.989	41.28
580.183	41.12
580.378	41.23
580.572	40.88
580.766	40.99
580.961	40.75
581.155	40.51
581.35	40.65
581.544	40.53
581.738	40.52
581.933	41.04
582.127	40.92
582.321	40.96
582.516	40.8
582.71	40.73
582.904	40.77
583.099	40.64
583.293	40.82
583.487	40.92
583.681	41.2
583.875	41.01
584.07	40.61
584.264	40.73
584.458	40.62
584.652	40.69
584.846	41.06
585.04	41.11
585.234	41.41
585.428	41.39
585.623	41.44
585.817	41.23
586.011	41.56
586.205	41.73
586.399	41.69
586.593	42.08
586.787	42.05
586.981	42.05
587.174	41.89
587.368	41.71
587.562	41.75
587.756	41.53
587.95	41.54
588.144	41.39
588.338	41.53
588.532	41.69
588.725	41.6
588.919	41.79
589.113	41.83
589.307	41.88
589.501	42.03
589.694	42.17
589.888	42.14
590.082	42.26
590.275	42.49
590.469	42.68
590.663	42.69
590.856	42.66
591.05	42.83
591.244	42.93
591.437	43.13
591.631	43.05
591.824	42.95
592.018	43.16
592.212	43.12
592.405	43.09
592.599	42.92
592.792	42.9
592.986	43.06
593.179	43.17
593.372	43.17
593.566	43.15
593.759	43.42
593.953	43.5
594.146	43.43
594.339	43.46
594.533	43.56
594.726	43.67
594.92	44.03
595.113	44.07
595.306	43.78
595.499	43.83
595.693	43.89
595.886	43.83
596.079	43.96
596.272	44.2
596.466	44.18
596.659	44.16
596.852	44.23
597.045	43.97
597.238	43.85
597.431	44.17
597.624	44.17
597.818	44.03
598.011	44.05
598.204	43.87
598.397	43.61
598.59	43.77
598.783	43.76
598.976	43.5
599.169	43.53
599.362	43.76
599.555	43.38
599.748	43.34
599.941	43.46
600.134	43.6
600.326	43.64
600.519	43.89
600.712	43.55
600.905	43.59
601.098	43.81
601.291	43.77
601.483	43.59
601.676	43.69
601.869	43.65
602.062	43.68
602.255	43.92
602.447	43.99
602.64	44.08
602.833	44.41
603.025	44.74
603.218	44.72
603.411	44.85
603.603	44.91
603.796	45.05
603.989	45.23
604.181	45.46
604.374	45.27
604.566	45.4
604.759	45.39
604.951	45.41
605.144	45.08
605.336	45.2
605.529	45.03
605.721	45.02
605.914	44.95
606.106	44.79
606.299	44.6
606.491	44.48
606.683	44.29
606.876	44.32
607.068	44.19
607.26	44.23
607.453	44.03
607.645	44.27
607.837	44.37
608.03	44.49
608.222	44.73
608.414	44.69
608.606	44.7
608.799	44.98
608.991	44.93
609.183	44.99
609.375	45.05
609.567	44.88
609.759	44.82
609.952	44.92
610.144	45.14
610.336	45.04
610.528	45.1
610.72	45.08
610.912	44.87
611.104	45.1
611.296	45.21
611.488	45.51
611.68	45.86
611.872	45.79
612.064	45.78
612.256	45.78
612.448	45.73
612.64	45.48
612.832	45.87
613.023	45.94
613.215	45.75
613.407	45.7
613.599	45.76
613.791	45.74
613.983	45.69
614.174	45.69
614.366	45.6
614.558	45.92
614.75	46.01
614.941	46.06
615.133	46.08
615.325	46.29
615.516	46.33
615.708	46.09
615.9	46.38
616.091	46.72
616.283	46.63
616.475	46.46
616.666	46.17
616.858	46.41
617.049	46.12
617.241	46.23
617.432	46.07
617.624	46.01
617.815	46.15
618.007	46.02
618.198	46.06
618.39	46.29
618.581	45.89
618.773	46.13
618.964	46.17
619.155	46.38
619.347	46.41
619.538	46.4
619.729	46.53
619.921	46.52
620.112	46.53
620.303	46.35
620.494	46.5
620.686	46.95
620.877	46.92
621.068	46.87
621.259	46.68
621.451	46.66
621.642	46.5
621.833	46.57
622.024	46.34
622.215	46.25
622.406	46.34
622.597	46.32
622.788	46.4
622.98	46.35
623.171	46.52
623.362	46.75
623.553	46.77
623.744	47.13
623.935	47.12
624.126	47.29
624.317	47.33
624.508	47.37
624.698	47.29
624.889	47.22
625.08	47.51
625.271	47.63
625.462	47.69
625.653	47.67
625.844	47.28
626.034	47.34
626.225	47.35
626.416	47.46
626.607	47.62
626.798	47.36
626.988	47.4
627.179	47.33
627.37	47.34
627.56	47.39
627.751	47.61
627.942	47.76
628.132	47.69
628.323	47.73
628.514	47.75
628.704	47.72
628.895	47.8
629.085	47.71
629.276	47.66
629.466	47.6
629.657	47.55
629.847	47.41
630.038	47.51
630.228	47.42
630.419	47.6
630.609	47.43
630.8	47.56
630.99	48.03
631.181	47.9
631.371	47.94
631.561	47.58
631.752	47.55
631.942	47.34
632.132	47.1
632.323	47.31
632.513	47.07
632.703	47.05
632.893	46.81
633.084	46.56
633.274	47.11
633.464	47.05
633.654	47.51
633.844	47.39
634.034	47.53
634.225	47.82
634.415	47.61
634.605	47.51
634.795	47.53
634.985	47.28
635.175	47.22
635.365	46.98
635.555	47.04
635.745	46.81
635.935	46.96
636.125	47.18
636.315	47.05
636.505	47.26
636.695	47.34
636.885	47.22
637.075	47.51
637.265	47.74
637.455	47.43
637.644	47.46
637.834	47.49
638.024	47.52
638.214	47.37
638.404	47.59
638.593	47.39
638.783	47.38
638.973	47.62
639.163	47.59
639.352	47.38
639.542	47.79
639.732	47.85
639.921	47.96
640.111	47.91
640.301	48.19
640.49	48.12
640.68	48.33
640.87	48.41
641.059	48.59
641.249	48.56
641.438	48.84
641.628	48.74
641.817	49.02
642.007	49.04
642.196	49.23
642.386	48.47
642.575	48.5
642.764	48.81
642.954	48.88
643.143	48.56
643.333	48.82
643.522	48.89
643.711	49.09
643.901	48.86
644.09	48.63
644.279	48.42
644.469	49.06
644.658	49.05
644.847	48.52
645.036	48.52
645.226	49.42
645.415	49.4
645.604	49.16
645.793	48.94
645.982	49.03
646.171	49.29
646.361	49.2
646.55	49.31
646.739	49.4
646.928	49.87
647.117	49.29
647.306	48.6
647.495	48.8
647.684	48.69
647.873	48.61
648.062	48.57
648.251	48.63
648.44	48.5
648.629	48.58
648.818	48.4
649.007	48.37
649.196	48.85
649.384	49.25
649.573	49.25
649.762	49.71
649.951	49.89
650.14	49.81
650.328	49.72
650.517	50.03
650.706	50.02
650.895	50.34
651.083	50.4
651.272	50.47
651.461	50.43
651.65	50.63
651.838	50.23
652.027	50.42
652.216	50.58
652.404	50.68
652.593	50.66
652.781	50.44
652.97	50.49
653.158	50.1
653.347	50.22
653.535	49.89
653.724	49.37
653.912	49.49
654.101	49.42
654.289	49.13
654.478	49.26
654.666	49.17
654.855	49.55
655.043	49.26
655.231	49.57
655.42	49.59
655.608	49.7
655.796	49.8
655.985	49.82
656.173	49.95
656.361	50.14
656.55	49.91
656.738	50.35
656.926	50.18
657.114	50.45
657.302	50.28
657.491	50.08
657.679	49.96
657.867	50.03
658.055	50.17
658.243	49.89
658.431	49.71
658.619	49.9
658.807	49.73
658.996	49.49
659.184	49.43
659.372	49.86
659.56	49.99
659.748	50.39
659.936	50.4
660.124	50.4
660.311	50.28
660.499	50.46
660.687	50.51
660.875	50.5
661.063	50.78
661.251	50.81
661.439	50.51
661.627	50.79
661.814	50.69
662.002	50.66
662.19	50.7
662.378	51.35
662.565	51.17
662.753	51.1
662.941	51.01
663.129	50.89
663.316	50.87
663.504	51.09
663.692	50.96
663.879	50.6
664.067	50.77
664.254	50.99
664.442	50.51
664.63	50.91
664.817	51.3
665.005	51.02
665.192	51.41
665.38	51.68
665.567	51.48
665.755	51.26
665.942	51.68
666.13	51.53
666.317	51.17
666.504	51.31
666.692	51.49
666.879	50.94
667.067	51.38
667.254	50.94
667.441	50.4
667.629	50.11
667.816	50.25
668.003	50.03
668.19	50.28
668.378	50.64
668.565	50.86
668.752	50.54
668.939	50.59
669.127	50.51
669.314	50.54
669.501	50.76
669.688	51.38
669.875	51.62
670.062	51.61
670.249	51.49
670.436	51.13
670.623	50.87
670.81	50.92
670.997	51.31
671.184	51.26
671.371	51.66
671.558	51.49
671.745	51.26
671.932	50.69
672.119	50.72
672.306	50.9
672.493	51.53
672.68	51.41
672.867	51.62
673.054	51.42
673.24	51.45
673.427	51.35
673.614	51.63
673.801	51.66
673.988	52.58
674.174	52.23
674.361	52.21
674.548	51.74
674.734	51.9
674.921	52.07
675.108	52.46
675.294	52.48
675.481	52.17
675.668	52.3
675.854	52.22
676.041	51.9
676.227	51.97
676.414	51.45
676.601	51.54
676.787	52.07
676.974	51.63
677.16	51.04
677.347	50.96
677.533	51.05
677.719	51.13
677.906	51.07
678.092	50.77
678.279	51.01
678.465	51.38
678.651	51.7
678.838	51.49
679.024	51.57
679.21	51.68
679.397	51.99
679.583	52.02
679.769	51.98
679.955	52.13
680.142	52.28
680.328	52.56
680.514	52.62
680.7	52.48
680.886	52.18
681.073	52.21
681.259	52.23
681.445	52.13
681.631	51.94
681.817	51.83
682.003	51.92
682.189	51.77
682.375	51.65
682.561	51.69
682.747	51.52
682.933	51.76
683.119	51.63
683.305	52.08
683.491	52.01
683.677	52.48
683.863	53.07
684.049	53.56
684.235	53.7
684.42	53.48
684.606	53.54
684.792	53.69
684.978	53.67
685.164	54.11
685.349	53.91
685.535	53.93
685.721	53.59
685.907	53.25
686.092	52.78
686.278	52.85
686.464	53.06
686.649	53.31
686.835	53.16
687.021	53.48
687.206	53.19
687.392	53.05
687.577	53.12
687.763	53.3
687.948	52.97
688.134	52.67
688.319	52.99
688.505	53.19
688.69	52.44
688.876	52.32
689.061	52.19
689.247	52.55
689.432	52.86
689.618	52.88
689.803	53.06
689.988	53.48
690.174	53.62
690.359	52.92
690.544	52.85
690.73	53.46
690.915	53.71
691.1	53.23
691.285	53.17
691.471	52.77
691.656	52.37
691.841	52.06
692.026	51.96
692.211	52.18
692.396	52.31
692.582	52.55
692.767	52.05
692.952	51.78
693.137	52.1
693.322	52.18
693.507	52.65
693.692	52.68
693.877	52.84
694.062	52.9
694.247	52.79
694.432	53.16
694.617	53.22
694.802	53.28
694.987	53.46
695.172	53.32
695.357	53.2
695.541	52.64
695.726	53.2
695.911	52.89
696.096	52.86
696.281	53.02
696.466	52.49
696.65	52.15
696.835	52.83
697.02	53.07
697.204	53.51
697.389	53.6
697.574	53.92
697.759	53.9
697.943	54.06
698.128	53.95
698.312	53.8
698.497	54.38
698.682	54.34
698.866	53.87
699.051	53.67
699.235	53.51
699.42	53.54
699.604	53.57
699.789	53.8
699.973	53.69
700.158	53.88
700.342	53.91
700.527	53.86
700.711	54.17
700.895	54.52
701.08	54.58
701.264	54.37
701.448	54.12
701.633	53.51
701.817	53.03
702.001	53.26
702.186	53.3
702.37	53.11
702.554	52.71
702.738	52.43
702.923	52.46
703.107	52.14
703.291	52.45
703.475	52.38
703.659	52.78
703.843	53.16
704.027	53.33
704.212	52.7
704.396	52.73
704.58	53.2
704.764	53.42
704.948	53.22
705.132	54.26
705.316	54.33
705.5	54.66
705.684	54.64
705.868	54.74
706.052	54.56
706.235	54.43
706.419	54.19
706.603	53.8
706.787	53.08
706.971	53.06
707.155	51.84
707.339	52.02
707.522	51.62
707.706	51.85
707.89	51.19
708.074	51.35
708.257	51.9
708.441	52.35
708.625	52.31
708.808	53.08
708.992	53.4
709.176	54.23
709.359	54.33
709.543	55.15
709.727	54.99
709.91	55.68
710.094	55.76
710.277	56.07
710.461	56.38
710.644	56.12
710.828	55.98
711.011	55.7
711.195	55.93
711.378	56.29
711.562	56
711.745	56.27
711.928	56.21
712.112	56.35
712.295	55.8
712.478	55.32
712.662	55.77
712.845	55.41
713.028	55.54
713.212	55.31
713.395	54.6
713.578	54.53
713.761	54.49
713.945	54.01
714.128	53.75
714.311	54.13
714.494	53.97
714.677	53.82
714.86	53.98
715.043	54.3
715.227	54.07
715.41	53.67
715.593	54.01
715.776	53.8
715.959	54.02
716.142	54.33
716.325	53.73
716.508	54.01
716.691	54.2
716.874	53.96
717.057	53.74
717.239	54.11
717.422	53.8
717.605	53.3
717.788	53.08
717.971	52.52
718.154	52.48
718.337	53.26
718.519	53.26
718.702	52.66
718.885	52.8
719.068	52.99
719.25	52.86
719.433	54.74
719.616	54.4
719.798	54.49
719.981	55.08
720.164	55.53
720.346	54.99
720.529	55.01
720.712	55.79
720.894	55.39
721.077	54.51
721.259	54.93
721.442	54.35
721.624	54.86
721.807	55.29
721.989	54.9
722.172	54.48
722.354	55.45
722.537	55.48
722.719	55.18
722.901	55.18
723.084	55.15
723.266	54.21
723.448	53.03
723.631	52.69
723.813	52.41
723.995	52.5
724.178	52.49
724.36	51.69
724.542	51.77
724.724	52.02
724.907	52.02
725.089	52.44
725.271	52.22
725.453	52.58
725.635	52.49
725.817	52.95
725.999	53.9
726.181	53.59
726.364	53.22
726.546	53.5
726.728	53.38
726.91	54.27
727.092	54.31
727.274	55.11
727.456	55.97
727.638	56.2
727.819	55.31
728.001	54.55
728.183	54
728.365	53.74
728.547	53.55
728.729	53.64
728.911	54.19
729.093	54.74
729.274	53.92
729.456	54
729.638	54.27
729.82	54.68
730.001	54.79
730.183	55.57
730.365	56.21
730.546	56.16
730.728	56.2
730.91	56.06
731.091	55.19
731.273	55.45
731.455	54.73
731.636	53.72
731.818	53.8
731.999	53.63
732.181	54.08
732.362	54.35
732.544	54.51
732.725	54.59
732.907	53.76
733.088	54.19
733.27	54.44
733.451	54.46
733.633	56.2
733.814	56.09
733.995	56.03
734.177	55.85
734.358	55.24
734.539	55.16
734.721	55.14
734.902	55.44
735.083	56.18
735.264	56.39
735.446	56.85
735.627	55.54
735.808	55.68
735.989	57.04
736.17	57.04
736.351	57.8
736.533	57.52
736.714	57.24
736.895	57.24
737.076	57.24
737.257	57.21
737.438	56.31
737.619	56.7
737.8	57.31
737.981	55.92
738.162	56.02
738.343	56.31
738.524	56.65
738.705	56.19
738.886	55.74
739.067	55.47
739.247	55.57
739.428	55.66
739.609	56.37
739.79	56.02
739.971	56.69
740.151	56.13
740.332	56
740.513	57.06
740.694	57.52
740.874	57.89
741.055	57.54
741.236	57.32
741.417	58.04
741.597	56.85
741.778	56.43
741.958	55.62
742.139	55.77
742.32	55.51
742.5	54.21
742.681	53.97
742.861	53.78
743.042	53.13
743.222	53.38
743.403	53.29
743.583	53.99
743.764	54.34
743.944	54.95
744.124	54.7
744.305	54.53
744.485	54.39
744.666	54.23
744.846	54.37
745.026	54.94
745.207	54.95
745.387	54.42
745.567	53.96
745.747	54.48
745.928	54.78
746.108	55.77
746.288	55.74
746.468	56.19
746.648	56.88
746.829	56.31
747.009	56.48
747.189	56.04
747.369	56.7
747.549	56.05
747.729	55.94
747.909	55.39
748.089	53.95
748.269	53.91
748.449	53.95
748.629	54.36
748.809	55.07
748.989	55.83
749.169	56.57
749.349	56.84
749.529	57.89
749.709	57.15
749.889	57.95
750.068	58.88
750.248	59.07
750.428	59.12
750.608	57.57
750.788	56.45
750.967	55.11
751.147	54.56
751.327	54.26
751.507	53.82
751.686	53.7
751.866	52.9
752.046	52.6
752.225	51.65
752.405	51.66
752.585	52.11
752.764	53.22
752.944	53.52
753.123	53.67
753.303	53.58
753.482	53.9
753.662	54.02
753.841	54.54
754.021	54.1
754.2	55.18
754.38	54.91
754.559	55.74
754.739	55.68
754.918	56.6
755.097	56.75
755.277	55.74
755.456	55.75
755.635	55.62
755.815	56.1
755.994	56.07
756.173	55.06
756.352	55.78
756.532	55.51
756.711	55.79
756.89	54.76
757.069	54.21
757.248	54.39
757.427	54.08
757.607	54.49
757.786	54.21
757.965	54.94
758.144	54.8
758.323	54.07
758.502	53.99
758.681	53.71
758.86	52.58
759.039	53.24
759.218	53.43
759.397	53.85
759.576	54.19
759.755	54.2
759.934	54.16
760.113	55.94
760.291	56.6
760.47	57.01
760.649	56.07
760.828	57.57
761.007	57.42
761.186	58.86
761.364	58.05
761.543	57.23
761.722	56.27
761.901	56.12
762.079	55.08
762.258	55.17
762.437	54.39
762.615	55.24
762.794	54.87
762.972	54.88
763.151	54.33
763.33	54.1
763.508	55.14
763.687	55.4
763.865	55.36
764.044	55.31
764.222	54.54
764.401	54.78
764.579	54.87
764.758	55.28
764.936	55.24
765.114	55.28
765.293	56.17
765.471	55.17
765.65	54.79
765.828	55.09
766.006	54.89
766.184	54.89
766.363	54.96
766.541	55.06
766.719	55.2
766.898	55.1
767.076	55.11
767.254	54.91
767.432	55.07
767.61	56.2
767.788	55.55
767.967	55.97
768.145	55.74
768.323	55.91
768.501	56.67
768.679	57.16
768.857	56.44
769.035	56.46
769.213	57.42
769.391	57.01
769.569	57.89
769.747	58.23
769.925	59.14
770.103	60.92
770.281	59.93
770.459	58.89
770.636	57.99
770.814	59.53
770.992	60.36
771.17	59.9
771.348	60.58
771.525	59.04
771.703	58.76
771.881	57.65
772.059	57.06
772.236	57.5
772.414	57.48
772.592	57.28
772.769	56.96
772.947	56.27
773.125	56.6
773.302	56.11
773.48	55.63
773.657	56.05
773.835	56.68
774.013	57.2
774.19	58.28
774.368	58.16
774.545	58.66
774.723	57.98
774.9	56.81
775.077	55.26
775.255	55.38
775.432	55.65
775.61	55.37
775.787	54.64
775.964	53.28
776.142	53.65
776.319	53.55
776.496	51.61
776.674	52.87
776.851	53.49
777.028	53.85
777.205	55.82
777.382	56.19
777.56	55.83
777.737	58.29
777.914	57.06
778.091	56.52
778.268	56.91
778.445	57.8
778.622	56.34
778.8	56.44
778.977	57.04
779.154	63.49
779.331	64.26
779.508	64.2
779.685	62.24
779.862	64.04
780.038	63.87
780.215	62.6
780.392	64.18
780.569	66.03
780.746	67.07
780.923	65.24
781.1	57.28
781.277	57.04
781.453	56.61
781.63	56.43
781.807	55.72
781.984	54.16
782.16	53.15
782.337	53.35
782.514	52.2
782.691	49.28
782.867	48.76
783.044	48.2
783.221	48.6
783.397	50.32
783.574	49.45
783.75	50.41
783.927	52.17
784.103	56.05
784.28	53.77
784.456	54.5
784.633	56.31
784.809	56.64
784.986	58.25
785.162	55.8
785.339	54.72
785.515	56.55
785.692	56.6
785.868	57.8
786.044	54.67
786.221	55.27
786.397	54.99
786.573	56.17
786.749	58.92
786.926	57.43
787.102	59.15
787.278	59.14
787.454	59.33
787.631	60.46
787.807	58.69
787.983	59.36
788.159	59
788.335	59.57
788.511	57.85
788.687	57.43
788.863	58.86
789.039	59.32
789.216	60.43
789.392	59.47
789.568	57.44
789.744	56.64
789.919	56.82
790.095	58.13
790.271	56.65
790.447	57.69
790.623	57.79
790.799	56.28
790.975	55.36
791.151	53.86
791.327	53.15
791.502	56.02
791.678	57.42
791.854	57.52
792.03	56.23
792.205	56.52
792.381	56.42
792.557	56.37
792.733	57.11
792.908	55.17
793.084	56.47
793.259	56.91
793.435	54.85
793.611	54.63
793.786	54.83
793.962	55.67
794.137	55.13
794.313	55.1
794.488	55.54
794.664	54.71
794.839	57.49
795.015	56.75
795.19	56.98
795.366	57.2
795.541	56.38
795.716	54.78
795.892	52.73
796.067	53.28
796.242	51.82
796.418	50.19
796.593	50.69
796.768	50.97
796.944	51.81
797.119	53.75
797.294	53.24
797.469	54.48
797.644	56.36
797.82	57.31
797.995	57.8
798.17	58.61
798.345	60.29
798.52	60.32
798.695	58.45
798.87	56.6
799.045	55.33
799.22	54.43
799.395	55.16
799.57	53.52
799.745	54.2
799.92	54.14
800.095	56.83
800.27	56.39
800.445	54.79
800.62	54.85
800.795	55.19
800.97	56.53
801.145	56.7
801.319	54.21
801.494	55.75
801.669	57.34
801.844	56.85
802.018	52.73
802.193	53.36
802.368	55.09
802.543	56.93
802.717	55.46
802.892	52.32
803.067	52.1
803.241	52.71
803.416	52.35
803.59	51.45
803.765	53.21
803.94	55.6
804.114	53.42
804.289	52.98
804.463	52.9
804.638	53.88
804.812	54.92
804.986	55.85
805.161	55.72
805.335	54.65
805.51	55.11
805.684	52.53
805.858	50.93
806.033	51.67
806.207	50.79
806.381	49.56
806.556	49.52
806.73	48.64
806.904	48.54
807.078	48.19
807.253	48.55
807.427	46.08
807.601	46.35
807.775	47.13
807.949	46.68
808.123	49.03
808.298	48.27
808.472	49.23
808.646	50.73
808.82	51.44
808.994	53.39
809.168	52.13
809.342	51.68
809.516	52.92
809.69	54.22
809.864	55.58
810.038	54.19
810.212	55.47
810.385	55.09
810.559	53.08
810.733	52.23
810.907	50.98
811.081	53.96
811.255	56.53
811.428	56.72
811.602	55.03
811.776	54.46
811.95	53.41
812.123	52.52
812.297	52.34
812.471	53.42
812.644	50.97
812.818	50.72
812.992	51.17
813.165	50.66
813.339	48.27
813.512	48.07
813.686	46.46
813.86	49.5
814.033	51.56
814.207	53.92
814.38	54.25
814.554	58.38
814.727	59.48
814.9	55.24
815.074	54.53
815.247	54.93
815.421	54.77
815.594	55.21
815.767	55.09
815.941	53.15
816.114	50.71
816.287	50.2
816.46	49.74
816.634	47.02
816.807	48.46
816.98	51.54
817.153	55.58
817.327	58.37
817.5	59.36
817.673	56.54
817.846	57.61
818.019	56.75
818.192	59.19
818.365	59.4
818.538	63.32
818.711	62.3
818.884	60.98
819.057	58.03
819.23	57
819.403	55.28
819.576	56.82
819.749	56.94
819.922	56.41
820.095	56.57
820.268	55.07
820.441	55.15
820.614	58.59
820.786	58.75
820.959	58.05
821.132	58.3
821.305	58.18
821.477	58.18
821.65	58.34
821.823	58.38
821.996	56.82
822.168	57.38
822.341	57.36
822.514	56.42
822.686	56.26
822.859	56.1
823.031	55.16
823.204	55.59
823.376	54.88
823.549	54.53
823.722	54.25
823.894	54.83
824.067	54.44
824.239	53.81
824.411	53.84
824.584	53
824.756	53.11
824.929	53.88
825.101	54.11
825.273	54.03
825.446	54.08
825.618	54.77
825.79	54.54
825.963	54.56
826.135	54.51
826.307	54.98
826.479	55.81
826.652	55.5
826.824	55.21
826.996	54.09
827.168	54.96
827.34	55.54
827.512	55.22
827.684	54.42
827.856	54.35
828.029	54.67
828.201	53.45
828.373	53.29
828.545	54.64
828.717	54.65
828.889	54.62
829.061	54.02
829.232	53.05
829.404	53.08
829.576	53.59
829.748	53.61
829.92	53.75
830.092	55.11
830.264	56.17
830.436	56.08
830.607	55.31
830.779	54.99
830.951	56.35
831.123	56.64
831.294	57.05
831.466	57.99
831.638	58.19
831.809	57.98
831.981	59.44
832.153	58.5
832.324	56.74
832.496	56.53
832.667	59.91
832.839	58.37
833.011	57.46
833.182	57.76
833.354	57.31
833.525	58.08
833.697	57.67
833.868	55.72
834.039	55.08
834.211	54.57
834.382	54.65
834.554	53.36
834.725	54.56
834.896	54.9
835.068	54.71
835.239	55.53
835.41	56.29
835.581	55.13
835.753	53.23
835.924	53.29
836.095	53.23
836.266	54.22
836.438	53.66
836.609	53.27
836.78	53.58
836.951	53.74
837.122	51.42
837.293	48.17
837.464	48.77
837.635	52.76
837.806	53.94
837.977	53.73
838.148	54.04
838.319	56
838.49	54.84
838.661	53.86
838.832	54.89
839.003	56.8
839.174	59.38
839.345	58.5
839.516	53.79
839.687	49.37
839.857	51.03
840.028	51.71
840.199	48.19
840.37	46.72
840.54	47.78
840.711	44.66
840.882	41.93
841.053	39.09
841.223	42.26
841.394	46.03
841.564	47.91
841.735	52.56
841.906	49.08
842.076	55.45
842.247	57.09
842.417	55.47
842.588	58.38
842.758	62.11
842.929	64.89
843.099	63.39
843.27	58.19
843.44	55.54
843.611	50.16
843.781	48.66
843.951	47.13
844.122	42.97
844.292	47.61
844.462	46.28
844.633	43.39
844.803	45.25
844.973	43.57
845.144	45.16
845.314	49.64
845.484	41.54
845.654	42.52
845.824	39.16
845.995	40.02
846.165	35.07
846.335	32.68
846.505	34.25
846.675	32.82
846.845	37.59
847.015	40.65
847.185	41
847.355	42.58
847.525	47.12
847.695	47.48
847.865	48.65
848.035	46.83
848.205	47.22
848.375	45.58
848.545	45.24
848.715	44.14
848.884	38.43
849.054	44.63
849.224	51.43
849.394	45.17
849.564	40.89
849.733	50.45
849.903	59.81
850.073	55.53
850.243	64.49
850.412	66.94
850.582	70.52
850.752	72.5
850.921	64.03
851.091	66.13
851.26	67.05
851.43	71.57
851.599	59.7
851.769	57.5
851.939	68.45
852.108	60.7
852.278	58.16
852.447	55.22
852.616	53.32
852.786	54.48
852.955	47.06
853.125	44.49
853.294	44.1
853.463	53.27
853.633	49.17
853.802	41.48
853.971	44.81
854.141	46.58
854.31	35.3
854.479	34.28
854.648	39.85
854.818	55.57
854.987	58.48
855.156	61.1
855.325	59.32
855.494	60.09
855.663	59.93
855.832	59.68
856.001	55.33
856.171	65.28
856.34	67.18
856.509	71.01
856.678	60.41
856.847	60.98
857.016	58.37
857.185	55.89
857.353	61.92
857.522	59.22
857.691	50.75
857.86	51.6
858.029	41.38
858.198	39.57
858.367	33.78
858.535	36.35
858.704	36.57
858.873	33.27
859.042	33.5
859.21	33.42
859.379	39.72
859.548	43.65
859.717	46.44
859.885	50.63
860.054	47.33
860.222	45.42
860.391	52
860.56	47.37
860.728	49.87
860.897	53.3
861.065	52.14
861.234	46.69
861.402	36.06
861.571	34.5
861.739	30.32
861.908	38.27
862.076	35.91
862.244	32.71
862.413	32.69
862.581	34.31
862.749	27.72
862.918	31.34
863.086	38.93
863.254	45.51
863.423	42.11
863.591	52.03
863.759	45.69
863.927	55.84
864.096	45.03
864.264	52.59
864.432	56.95
864.6	64.08
864.768	49.68
864.936	42.46
865.104	43.38
865.272	40.5
865.44	42.05
865.608	48.11
865.776	48.04
865.944	50.6
866.112	45.9
866.28	33.13
866.448	21.59
866.616	25.23
866.784	33.38
866.952	28.87
867.12	34.98
867.288	32
867.455	22.77
867.623	24.47
867.791	24.63
867.959	26.27
868.127	28.05
868.294	37.57
868.462	40.07
868.63	36.36
868.797	35.39
868.965	37.94
869.133	39.65
869.3	47.25
869.468	44.93
869.636	42.04
869.803	40.84
869.971	40.19
870.138	37.52
870.306	38.85
870.473	38.12
870.641	46.63
870.808	39.4
870.975	33.02
871.143	34.59
871.31	29
871.478	35.35
871.645	35.37
871.812	38.77
871.98	33.97
872.147	32.23
872.314	29.51
872.482	29.42
872.649	33.94
872.816	35.82
872.983	26.7
873.15	22.8
873.318	17.78
873.485	19.01
873.652	7.19
873.819	14.64
873.986	9.81
874.153	12.6
874.32	8.51
874.487	6.64
874.654	-0.12
874.821	3.05
874.988	12.53
875.155	17.74
875.322	13.54
875.489	19.18
875.656	10.18
875.823	15.93
875.99	17.7
876.157	20.72
876.324	19.21
876.49	25.78
876.657	21.17
876.824	14.12
876.991	9.09
877.157	15.11
877.324	9.87
877.491	22.93
877.658	15.8
877.824	10.85
877.991	3.49
878.157	8.05
878.324	3.11
878.491	5.75
878.657	10.75
878.824	19.83
878.99	21.21
879.157	25.98
879.323	29.86
879.49	32.24
879.656	41.65
879.823	50.18
879.989	50.67
880.156	62.51
880.322	63.58
880.488	62.17
880.655	56.85
880.821	53.58
880.987	56.5
881.154	54.01
881.32	60.35
881.486	57.83
881.652	58.01
881.819	58.46
881.985	54.67
882.151	55.76
882.317	57.76
882.483	57.73
882.649	59.48
882.816	57.36
882.982	57.63
883.148	56.51
883.314	54.23
883.48	53.32
883.646	51.84
883.812	53.56
883.978	52.18
884.144	52.01
884.31	52.58
884.476	51.62
884.642	52.01
884.807	50.09
884.973	48.71
885.139	48.8
885.305	48.56
885.471	49.23
885.637	46.72
885.802	47.58
885.968	47.54
886.134	46.59
886.3	46.59
886.465	46.17
886.631	47.45
886.797	47.37
886.962	47.98
887.128	49.87
887.293	50.49
887.459	51.71
887.625	45.9
887.79	40.68
887.956	39.04
888.121	37.84
888.287	35.61
888.452	32.72
888.618	26.46
888.783	24.87
