Data from 2938723__Reflection_03.txt Node
Date: Sun Mar 15 20:32:54 EDT 2015
User: robert
Spectrometer: USB4E03002
Autoset integration time: false
Trigger mode: 4
Integration Time (sec): 1.000000E-1
Scans to average: 10
Electric dark correction enabled: false
Nonlinearity correction enabled: false
Boxcar width: 5
Stray light correction enabled: false
XAxis mode: Wavelengths
Stop averaging: false
Number of Pixels in Spectrum: 3648
>>>>>Begin Spectral Data<<<<<
177.575	-30
177.794	-48.25
178.014	-80.44
178.233	-80.95
178.452	-70.42
178.672	-568.33
178.891	-654.24
179.11	-1261.36
179.33	-5425
179.549	447.57
179.768	609.72
179.987	174.18
180.207	-141.18
180.426	-115.97
180.645	-33.52
180.864	0.69
181.084	-1.61
181.303	-9.3
181.522	-38.74
181.741	-28.11
181.96	-16.15
182.179	-12.36
182.398	-8.29
182.618	27.45
182.837	16.07
183.056	37.96
183.275	34.86
183.494	-84.72
183.713	984.62
183.932	-126.72
184.151	-82.26
184.37	-265
184.589	-34.15
184.808	-45.45
185.027	13.4
185.246	162.88
185.465	-15.38
185.684	-567.86
185.903	120.19
186.122	343.59
186.341	212.5
186.56	437.21
186.779	486.32
186.998	245.38
187.216	304.17
187.435	294.83
187.654	393.01
187.873	735.48
188.092	13775
188.311	-850
188.53	612.2
188.748	984.29
188.967	546.23
189.186	249.65
189.405	4500
189.623	436.36
189.842	175
190.061	212.78
190.28	-604.65
190.498	5060
190.717	-366.67
190.936	-7.75
191.154	7.88
191.373	-0.46
191.592	-9.62
191.81	-1.92
192.029	4.97
192.248	4.19
192.466	9.35
192.685	-5.89
192.904	12.43
193.122	-29.23
193.341	-29.21
193.559	-51.31
193.778	-50.19
193.996	-80.42
194.215	-119.09
194.433	-102.98
194.652	-81.45
194.87	-273.98
195.089	-293.41
195.307	-461.38
195.526	-265.63
195.744	-203.38
195.963	-463.25
196.181	-435.9
196.399	1067.35
196.618	-667.07
196.836	-1582.93
197.055	3020
197.273	-1100
197.491	-367.81
197.71	-238.82
197.928	-670.11
198.146	430.89
198.365	416.34
198.583	417.02
198.801	400.72
199.019	199.46
199.238	149.75
199.456	291.26
199.674	200
199.892	397.1
200.111	100
200.329	427.27
200.547	235.45
200.765	289.69
200.983	285.42
201.202	-292.86
201.42	-326.09
201.638	-1016.28
201.856	-242.54
202.074	-145.93
202.292	-1061.9
202.51	-124.59
202.728	-285.19
202.946	-132.03
203.165	-32.23
203.383	-830.77
203.601	1110.53
203.819	444.12
204.037	132.91
204.255	118.18
204.473	216.73
204.691	617.28
204.909	338.26
205.127	-704.23
205.345	-358.76
205.562	-215.38
205.78	-319.42
205.998	-189.82
206.216	-254.33
206.434	-24.64
206.652	-86
206.87	-72.49
207.088	-437.14
207.306	-564.13
207.523	3144.44
207.741	-725
207.959	-1448.78
208.177	-275.3
208.395	-1069.39
208.612	-776.19
208.83	-596.03
209.048	-325.11
209.266	-220.83
209.483	-208.46
209.701	-125.36
209.919	-116.19
210.136	-217.89
210.354	-203.87
210.572	-227.62
210.79	-172.75
211.007	-210.96
211.225	-203.24
211.442	-130.39
211.66	-151.04
211.878	-144.81
212.095	-142.66
212.313	-174.56
212.53	-255.59
212.748	-185.71
212.966	-239.42
213.183	-173.87
213.401	-123.27
213.618	-147.89
213.836	-195.98
214.053	-306.38
214.271	-324.06
214.488	-376.16
214.705	-658.59
214.923	-184.17
215.14	-395.9
215.358	-75.25
215.575	-111.19
215.793	-87.98
216.01	-3.11
216.227	-1.33
216.445	-8.04
216.662	18.74
216.879	30.81
217.097	48.9
217.314	42.25
217.531	32.66
217.749	33.94
217.966	25.97
218.183	-2.41
218.4	-28.72
218.618	-50.99
218.835	-10.05
219.052	-35.63
219.269	-25.92
219.487	-23.65
219.704	-24.93
219.921	-6.03
220.138	-17.13
220.355	-12.77
220.572	9.91
220.79	18.92
221.007	17.85
221.224	13.96
221.441	23.15
221.658	18.35
221.875	15.31
222.092	8.78
222.309	16.69
222.526	10.68
222.743	19.72
222.96	7.83
223.177	0.05
223.394	-1.39
223.611	-5.93
223.828	-13.22
224.045	-12.13
224.262	-10.91
224.479	-13.58
224.696	-23.57
224.913	-16.08
225.13	-19.01
225.347	-9.97
225.564	-8.22
225.781	-10.08
225.997	-5.07
226.214	-1.08
226.431	-4.4
226.648	1.34
226.865	3.6
227.082	3.46
227.298	1.16
227.515	1.9
227.732	2.41
227.949	4.22
228.165	4.51
228.382	3.74
228.599	2.75
228.816	4.53
229.032	4.16
229.249	4.35
229.466	5.13
229.682	6.03
229.899	6.19
230.116	6.16
230.332	5.78
230.549	4.82
230.765	5.36
230.982	4.34
231.199	2.78
231.415	1.26
231.632	1.73
231.848	2.27
232.065	0.98
232.281	-2.47
232.498	-3.81
232.714	-4
232.931	-0.87
233.147	-0.55
233.364	3.04
233.58	3.44
233.797	3.12
234.013	1.07
234.23	-0.42
234.446	-1.75
234.662	1.11
234.879	1.17
235.095	0.21
235.312	-1.22
235.528	-1.25
235.744	-2.77
235.961	-2.14
236.177	-1.89
236.393	1.28
236.61	3.95
236.826	6.89
237.042	8.25
237.258	8.14
237.475	7.68
237.691	7.93
237.907	4.6
238.123	4.32
238.339	4.93
238.556	4.84
238.772	3.55
238.988	-1.91
239.204	-3.04
239.42	-3.88
239.636	-3.16
239.853	-1.96
240.069	-1.05
240.285	0.37
240.501	2.04
240.717	1.73
240.933	1.87
241.149	2.32
241.365	3.15
241.581	3.79
241.797	3.59
242.013	3.6
242.229	3.03
242.445	2.88
242.661	3.54
242.877	2.78
243.093	2.62
243.309	2.7
243.525	1.78
243.741	1.66
243.957	0.93
244.173	0.8
244.388	0.57
244.604	1.34
244.82	1.84
245.036	1.31
245.252	2.41
245.468	2.11
245.683	2.17
245.899	2.43
246.115	3.28
246.331	3.36
246.547	3.59
246.762	3.55
246.978	3.23
247.194	3.25
247.409	3.07
247.625	2.33
247.841	2.56
248.057	2.7
248.272	2.75
248.488	2.72
248.703	2.86
248.919	2.5
249.135	2.55
249.35	2.88
249.566	2.27
249.782	2.63
249.997	3.98
250.213	4.41
250.428	4.32
250.644	5.19
250.859	4.53
251.075	4.5
251.29	4.45
251.506	4.63
251.721	4.15
251.937	4.98
252.152	4.33
252.368	3.86
252.583	3.25
252.798	3.45
253.014	2.66
253.229	2.79
253.445	2.62
253.66	2.74
253.875	2.02
254.091	2.28
254.306	1.45
254.521	2.51
254.737	2.26
254.952	1.78
255.167	0.8
255.383	-0.19
255.598	-0.66
255.813	-0.42
256.028	-0.13
256.244	1.05
256.459	1.27
256.674	2.45
256.889	2.6
257.104	1.81
257.32	2.16
257.535	2.55
257.75	2.67
257.965	2.79
258.18	2.94
258.395	2.74
258.61	2.47
258.826	2.2
259.041	1.85
259.256	1.56
259.471	1.7
259.686	1.82
259.901	1.89
260.116	1.78
260.331	2.1
260.546	2.16
260.761	2.26
260.976	2.23
261.191	2.32
261.406	2.25
261.621	2.31
261.836	2.97
262.05	3.22
262.265	3.2
262.48	3.55
262.695	3.15
262.91	2.24
263.125	1.65
263.34	2.05
263.555	2.67
263.769	2.64
263.984	2.54
264.199	1.68
264.414	1.12
264.629	0.61
264.843	1.4
265.058	1.98
265.273	2.93
265.488	2.68
265.702	1.92
265.917	1.5
266.132	1.68
266.346	2.02
266.561	2.41
266.776	2.45
266.99	2.76
267.205	2.17
267.42	1.76
267.634	1.64
267.849	2.44
268.063	2.97
268.278	3.05
268.492	3.31
268.707	3.42
268.922	3.21
269.136	3.09
269.351	3.68
269.565	3.9
269.78	3.53
269.994	3.18
270.209	2.71
270.423	1.94
270.637	1.68
270.852	1.64
271.066	1.52
271.281	1.53
271.495	1.62
271.709	0.95
271.924	1.13
272.138	1.07
272.353	1.39
272.567	1.28
272.781	1.97
272.996	1.85
273.21	1.41
273.424	1.17
273.638	1.31
273.853	1.03
274.067	1.2
274.281	0.68
274.495	1.03
274.71	0.42
274.924	0.37
275.138	-0.06
275.352	0.68
275.566	1.26
275.781	1.34
275.995	0.62
276.209	1.18
276.423	1.44
276.637	1.87
276.851	1.77
277.065	1.43
277.279	1.96
277.493	2.31
277.707	1.76
277.921	2.35
278.135	2.45
278.349	2.52
278.563	2.19
278.777	2.44
278.991	2
279.205	2.5
279.419	2.82
279.633	2.44
279.847	2.24
280.061	2.19
280.275	1.08
280.489	1.31
280.703	1.83
280.917	2.06
281.131	1.39
281.344	1.57
281.558	0.97
281.772	0.93
281.986	0.72
282.2	0.42
282.414	0.45
282.627	0.7
282.841	0.26
283.055	0.04
283.269	-0.05
283.482	0.29
283.696	0.46
283.91	0.6
284.123	0.93
284.337	1.41
284.551	1.68
284.764	1.49
284.978	1.39
285.192	1.55
285.405	1.68
285.619	1.71
285.833	1.7
286.046	1.65
286.26	1.54
286.473	1.26
286.687	0.96
286.9	1.01
287.114	1.62
287.327	1.52
287.541	1.63
287.754	1.59
287.968	1.61
288.181	1.39
288.395	1.24
288.608	1.23
288.822	1.55
289.035	1.52
289.248	1.05
289.462	0.45
289.675	0.3
289.889	0.43
290.102	0.63
290.315	0.71
290.529	1.02
290.742	1.15
290.955	1.01
291.169	0.98
291.382	1.1
291.595	1.42
291.808	1.6
292.022	2.1
292.235	2.14
292.448	1.72
292.661	1.47
292.875	1.12
293.088	1.04
293.301	1.19
293.514	1.35
293.727	1.27
293.94	1.3
294.153	1.72
294.367	1.53
294.58	1.34
294.793	1.36
295.006	1.66
295.219	1.82
295.432	1.93
295.645	2.08
295.858	2.19
296.071	2.07
296.284	1.96
296.497	1.51
296.71	1.61
296.923	1.59
297.136	1.61
297.349	1.63
297.562	1.48
297.775	1.58
297.988	1.45
298.201	1.35
298.414	1.5
298.626	1.68
298.839	1.73
299.052	1.75
299.265	1.94
299.478	2.36
299.691	2.2
299.903	2.22
300.116	1.88
300.329	2.25
300.542	2.24
300.755	2.61
300.967	2.49
301.18	2.75
301.393	2.94
301.605	2.79
301.818	2.7
302.031	2.8
302.243	2.64
302.456	2.76
302.669	2.73
302.881	2.25
303.094	1.71
303.307	2.06
303.519	2.24
303.732	1.78
303.944	2.2
304.157	1.77
304.37	1.41
304.582	1.22
304.795	1.71
305.007	1.86
305.22	2.14
305.432	2.52
305.645	2.16
305.857	2.04
306.069	2.21
306.282	1.88
306.494	2.56
306.707	3.2
306.919	3.77
307.132	3.14
307.344	2.93
307.556	3.34
307.769	2.81
307.981	2.9
308.193	2.67
308.406	2.42
308.618	2.29
308.83	1.92
309.043	1.78
309.255	1.8
309.467	1.88
309.679	2.07
309.892	1.44
310.104	1.79
310.316	2.01
310.528	2.33
310.74	2.62
310.953	2.6
311.165	2.65
311.377	2.71
311.589	2.65
311.801	2.95
312.013	3.03
312.225	3.71
312.437	3.84
312.649	3.63
312.862	3.43
313.074	3.25
313.286	3.11
313.498	3.2
313.71	3.02
313.922	2.88
314.134	2.73
314.346	2.92
314.558	2.38
314.77	2.38
314.982	2.57
315.193	2.46
315.405	3.01
315.617	3.82
315.829	4.34
316.041	4.21
316.253	4.64
316.465	5.06
316.677	4.44
316.888	5.46
317.1	5.29
317.312	5.16
317.524	5.32
317.736	5.29
317.947	4.94
318.159	4.33
318.371	4.85
318.583	4.99
318.794	5.22
319.006	5.37
319.218	4.49
319.43	4.73
319.641	5.39
319.853	5.16
320.064	4.45
320.276	4.53
320.488	4.19
320.699	3.8
320.911	4.25
321.123	3.43
321.334	3.51
321.546	3.56
321.757	3.69
321.969	3.54
322.18	4.24
322.392	5.21
322.603	5.15
322.815	5.83
323.026	6.11
323.238	5.33
323.449	6.31
323.661	7.33
323.872	7.81
324.083	8.21
324.295	8.09
324.506	8.59
324.718	8.46
324.929	9.23
325.14	9.28
325.352	9.82
325.563	10.6
325.774	10.69
325.986	10.41
326.197	11.31
326.408	11.4
326.62	12.05
326.831	12
327.042	12.82
327.253	13.08
327.464	13.81
327.676	13.86
327.887	14.23
328.098	14.72
328.309	15.66
328.52	15.36
328.732	15.78
328.943	16.03
329.154	16.88
329.365	17.22
329.576	17.42
329.787	18.09
329.998	19.03
330.209	19.42
330.42	19.49
330.631	19.11
330.842	19.71
331.053	20.39
331.264	20.96
331.475	21.31
331.686	21.8
331.897	22.52
332.108	23.09
332.319	23.25
332.53	23.37
332.741	23.74
332.952	24.74
333.163	25.42
333.374	25.8
333.585	26.24
333.795	26.73
334.006	27.62
334.217	27.86
334.428	28.12
334.639	28.46
334.849	28.95
335.06	29.72
335.271	29.9
335.482	30.19
335.692	30.72
335.903	30.85
336.114	30.67
336.325	30.56
336.535	30.88
336.746	30.73
336.957	30.84
337.167	31.14
337.378	31.12
337.589	31.28
337.799	31.06
338.01	30.78
338.22	30.7
338.431	31.09
338.642	31.08
338.852	31.4
339.063	31.67
339.273	32
339.484	32.06
339.694	32.18
339.905	31.87
340.115	32.05
340.326	32.38
340.536	32.76
340.746	32.57
340.957	32.67
341.167	32.41
341.378	32.08
341.588	31.97
341.799	32.18
342.009	32.16
342.219	32.38
342.43	32.38
342.64	32.2
342.85	32.15
343.061	32.69
343.271	32.76
343.481	32.77
343.691	33.21
343.902	33.51
344.112	33.61
344.322	33.59
344.532	33.68
344.743	33.77
344.953	33.85
345.163	33.72
345.373	33.2
345.583	33.11
345.793	33.45
346.004	33.24
346.214	33.36
346.424	33.07
346.634	33.41
346.844	33.16
347.054	33.21
347.264	33.42
347.474	33.59
347.684	33.61
347.894	33.4
348.104	33.01
348.314	33.34
348.524	33.39
348.734	33.31
348.944	32.77
349.154	33.14
349.364	33.13
349.574	32.84
349.784	32.71
349.994	32.66
350.204	33.19
350.413	33.17
350.623	33.07
350.833	32.8
351.043	33.03
351.253	32.92
351.463	32.93
351.672	33
351.882	32.91
352.092	32.82
352.302	32.98
352.511	32.37
352.721	32.57
352.931	32.17
353.141	32.26
353.35	32.13
353.56	32.38
353.77	32.18
353.979	32.09
354.189	32.08
354.399	32.2
354.608	32.28
354.818	32.63
355.027	32.49
355.237	32.47
355.447	32.39
355.656	32.24
355.866	32.4
356.075	32.34
356.285	32.34
356.494	32.41
356.704	32.42
356.913	32.45
357.123	32.18
357.332	32
357.542	32.16
357.751	31.88
357.96	32.18
358.17	32.07
358.379	31.91
358.589	31.56
358.798	31.34
359.007	31.38
359.217	31.34
359.426	31.53
359.635	31.59
359.845	31.5
360.054	31.53
360.263	31.41
360.472	31.48
360.682	31.57
360.891	31.69
361.1	31.71
361.309	31.51
361.519	31.54
361.728	31.22
361.937	31.41
362.146	31.45
362.355	31.46
362.564	31.28
362.774	30.9
362.983	30.78
363.192	30.82
363.401	30.94
363.61	31.07
363.819	30.89
364.028	31.18
364.237	30.84
364.446	30.94
364.655	31.06
364.864	31.25
365.073	31.41
365.282	31.46
365.491	31.29
365.7	31.42
365.909	31.26
366.118	31.4
366.327	31.02
366.536	31.14
366.745	30.95
366.954	30.73
367.162	30.52
367.371	30.38
367.58	30.16
367.789	30.22
367.998	30.03
368.207	30.15
368.415	29.85
368.624	30.1
368.833	30.06
369.042	30.08
369.25	29.98
369.459	30.09
369.668	30.39
369.877	30.82
370.085	30.75
370.294	30.67
370.503	30.54
370.711	30.77
370.92	30.68
371.129	30.31
371.337	30.39
371.546	30.57
371.754	30.68
371.963	30.62
372.171	30.48
372.38	30.57
372.589	30.45
372.797	30.66
373.006	30.48
373.214	30.61
373.423	30.95
373.631	30.91
373.84	30.73
374.048	30.45
374.256	30.63
374.465	30.41
374.673	30.33
374.882	30.47
375.09	30.26
375.298	30.1
375.507	29.69
375.715	29.8
375.923	29.92
376.132	30.12
376.34	30.11
376.548	29.93
376.757	29.87
376.965	29.91
377.173	29.75
377.381	29.76
377.59	29.97
377.798	30.27
378.006	30.09
378.214	29.84
378.423	29.74
378.631	29.94
378.839	29.98
379.047	30.23
379.255	30.07
379.463	30.14
379.671	30.22
379.879	30.19
380.088	30.21
380.296	30.52
380.504	30.66
380.712	30.68
380.92	30.81
381.128	30.65
381.336	30.46
381.544	30.58
381.752	30.66
381.96	30.67
382.168	30.45
382.376	30.38
382.584	30.06
382.791	30.19
382.999	30.23
383.207	30.04
383.415	30.1
383.623	30.26
383.831	30.25
384.039	30.27
384.247	30.07
384.454	30.2
384.662	30.18
384.87	29.91
385.078	29.83
385.285	29.8
385.493	29.86
385.701	29.68
385.909	29.72
386.116	29.64
386.324	29.5
386.532	29.8
386.739	29.77
386.947	29.68
387.155	29.96
387.362	29.81
387.57	29.57
387.778	29.48
387.985	29.73
388.193	29.65
388.4	29.66
388.608	29.63
388.816	29.2
389.023	29.29
389.231	29.29
389.438	29.27
389.646	29.54
389.853	29.77
390.061	29.94
390.268	29.93
390.475	29.95
390.683	30.01
390.89	30.08
391.098	30.08
391.305	30.03
391.512	30.11
391.72	30.13
391.927	29.81
392.135	29.58
392.342	29.3
392.549	29.1
392.756	29.15
392.964	29.17
393.171	29.19
393.378	29.33
393.586	29.26
393.793	29.36
394	29.47
394.207	29.52
394.414	29.58
394.622	29.61
394.829	29.57
395.036	29.57
395.243	29.58
395.45	29.75
395.657	29.66
395.864	29.76
396.072	29.64
396.279	29.5
396.486	29.51
396.693	29.66
396.9	29.67
397.107	29.86
397.314	29.81
397.521	29.88
397.728	29.59
397.935	29.66
398.142	29.72
398.349	29.65
398.556	29.6
398.763	29.72
398.97	29.66
399.177	29.67
399.383	29.49
399.59	29.43
399.797	29.24
400.004	29.38
400.211	29.45
400.418	29.57
400.625	29.51
400.831	29.63
401.038	29.6
401.245	29.36
401.452	29.29
401.658	29.46
401.865	29.63
402.072	29.74
402.279	29.49
402.485	29.48
402.692	29.6
402.899	29.69
403.105	29.61
403.312	29.57
403.519	29.84
403.725	30.04
403.932	30.11
404.138	29.88
404.345	29.93
404.552	30.16
404.758	30.21
404.965	30.05
405.171	30.07
405.378	30.11
405.584	30.26
405.791	30.39
405.997	30.5
406.204	30.58
406.41	30.71
406.617	30.86
406.823	30.88
407.029	31.14
407.236	31
407.442	30.93
407.649	30.9
407.855	30.68
408.061	30.67
408.268	30.62
408.474	30.69
408.68	30.82
408.887	30.73
409.093	30.86
409.299	30.47
409.505	30.66
409.712	30.7
409.918	30.61
410.124	30.94
410.33	30.96
410.537	31.09
410.743	30.82
410.949	30.85
411.155	30.82
411.361	30.69
411.567	30.94
411.773	30.73
411.98	30.93
412.186	31.2
412.392	30.91
412.598	30.8
412.804	30.71
413.01	30.85
413.216	30.83
413.422	30.96
413.628	31.07
413.834	30.95
414.04	31.1
414.246	30.99
414.452	30.82
414.658	30.86
414.864	30.93
415.07	30.86
415.275	30.81
415.481	30.75
415.687	30.78
415.893	30.71
416.099	30.62
416.305	30.72
416.511	30.69
416.716	30.78
416.922	30.9
417.128	30.82
417.334	30.89
417.539	30.92
417.745	31.02
417.951	30.99
418.157	31.03
418.362	31.09
418.568	31.11
418.774	31.14
418.979	31.15
419.185	31.26
419.391	31.27
419.596	31.25
419.802	31.31
420.008	31.21
420.213	31.17
420.419	31.16
420.624	31.17
420.83	31.08
421.035	31.12
421.241	31.2
421.446	31.04
421.652	31.07
421.857	31.15
422.063	31.15
422.268	31.18
422.474	31.2
422.679	31.25
422.885	31.45
423.09	31.52
423.295	31.51
423.501	31.52
423.706	31.54
423.911	31.57
424.117	31.5
424.322	31.52
424.527	31.54
424.733	31.61
424.938	31.6
425.143	31.44
425.349	31.49
425.554	31.48
425.759	31.44
425.964	31.56
426.169	31.6
426.375	31.57
426.58	31.61
426.785	31.68
426.99	31.63
427.195	31.72
427.4	31.74
427.605	31.7
427.811	31.69
428.016	31.68
428.221	31.54
428.426	31.5
428.631	31.59
428.836	31.59
429.041	31.58
429.246	31.52
429.451	31.38
429.656	31.52
429.861	31.53
430.066	31.6
430.271	31.52
430.476	31.75
430.681	31.82
430.886	31.93
431.09	31.67
431.295	31.66
431.5	31.8
431.705	31.87
431.91	31.73
432.115	31.74
432.32	31.79
432.524	31.86
432.729	31.76
432.934	31.83
433.139	31.74
433.343	31.9
433.548	32
433.753	31.91
433.958	31.99
434.162	31.99
434.367	32.05
434.572	31.97
434.776	31.99
434.981	31.94
435.186	31.84
435.39	31.88
435.595	31.88
435.799	31.81
436.004	31.91
436.209	31.84
436.413	31.85
436.618	31.92
436.822	32.11
437.027	32.18
437.231	32.22
437.436	32.23
437.64	32.31
437.845	32.38
438.049	32.45
438.253	32.54
438.458	32.56
438.662	32.69
438.867	32.6
439.071	32.6
439.275	32.58
439.48	32.68
439.684	32.74
439.888	32.71
440.093	32.75
440.297	32.71
440.501	32.75
440.706	32.78
440.91	32.78
441.114	32.88
441.318	32.85
441.523	32.88
441.727	32.88
441.931	32.94
442.135	32.98
442.339	32.95
442.543	33.02
442.748	33
442.952	33.07
443.156	33.04
443.36	33.04
443.564	33.05
443.768	33.03
443.972	33.04
444.176	33.05
444.38	33
444.584	33.06
444.788	33.06
444.992	33.09
445.196	33
445.4	32.94
445.604	32.94
445.808	32.86
446.012	32.8
446.216	32.86
446.42	32.71
446.624	32.76
446.828	32.73
447.032	32.68
447.235	32.63
447.439	32.61
447.643	32.7
447.847	32.68
448.051	32.66
448.254	32.77
448.458	32.74
448.662	32.74
448.866	32.71
449.069	32.7
449.273	32.86
449.477	32.92
449.681	33.09
449.884	33.11
450.088	33.09
450.292	33.21
450.495	33.24
450.699	33.17
450.902	33.24
451.106	33.34
451.31	33.33
451.513	33.16
451.717	33.02
451.92	32.84
452.124	32.91
452.327	32.84
452.531	32.81
452.734	32.73
452.938	32.83
453.141	32.95
453.345	32.77
453.548	32.79
453.752	32.84
453.955	32.8
454.158	32.96
454.362	32.77
454.565	32.78
454.769	32.81
454.972	32.83
455.175	32.73
455.379	32.62
455.582	32.67
455.785	32.68
455.988	32.7
456.192	32.7
456.395	32.58
456.598	32.63
456.801	32.77
457.005	32.71
457.208	32.66
457.411	32.68
457.614	32.83
457.817	32.94
458.021	32.91
458.224	32.87
458.427	32.95
458.63	33.01
458.833	33.02
459.036	33
459.239	33.02
459.442	33.05
459.645	33.07
459.848	32.94
460.051	32.9
460.254	32.94
460.457	32.93
460.66	32.87
460.863	32.79
461.066	32.86
461.269	32.7
461.472	32.72
461.675	32.78
461.878	32.79
462.081	32.93
462.284	33.02
462.486	33.06
462.689	33.02
462.892	33.08
463.095	33.19
463.298	33.09
463.5	33.29
463.703	33.29
463.906	33.2
464.109	33.07
464.311	32.97
464.514	32.72
464.717	32.74
464.92	32.8
465.122	32.71
465.325	32.71
465.528	32.76
465.73	32.82
465.933	32.76
466.135	32.87
466.338	32.87
466.541	32.92
466.743	33.01
466.946	33
467.148	33.04
467.351	33.13
467.553	33.09
467.756	33.07
467.958	33.07
468.161	33.19
468.363	33.16
468.566	33.28
468.768	33.26
468.971	33.22
469.173	33.14
469.375	33.1
469.578	33.09
469.78	33.12
469.983	33.14
470.185	33.08
470.387	32.86
470.59	33.01
470.792	32.95
470.994	32.93
471.196	33.08
471.399	33.2
471.601	33.28
471.803	33.4
472.005	33.36
472.208	33.31
472.41	33.36
472.612	33.46
472.814	33.2
473.016	33.27
473.218	33.2
473.421	33.24
473.623	33.11
473.825	32.89
474.027	32.73
474.229	32.67
474.431	32.63
474.633	32.57
474.835	32.71
475.037	32.82
475.239	32.68
475.441	32.75
475.643	32.67
475.845	32.78
476.047	32.8
476.249	32.87
476.451	32.89
476.653	33.06
476.855	33.08
477.057	32.91
477.258	32.94
477.46	33.02
477.662	33.02
477.864	33.03
478.066	33
478.268	33.22
478.469	33.17
478.671	33.2
478.873	33.12
479.075	33.12
479.276	33.24
479.478	33.07
479.68	33.11
479.882	33.06
480.083	33.09
480.285	33.13
480.487	32.95
480.688	33.05
480.89	33.13
481.091	33.17
481.293	33.18
481.495	33.17
481.696	33.26
481.898	33.17
482.099	33.22
482.301	33.21
482.502	33.21
482.704	33.23
482.905	33.19
483.107	33.15
483.308	33.11
483.51	33.1
483.711	33.06
483.913	33.04
484.114	33.07
484.315	33.06
484.517	33.01
484.718	32.97
484.92	32.99
485.121	33
485.322	33
485.524	33
485.725	32.98
485.926	33.06
486.127	33.09
486.329	33.06
486.53	33.06
486.731	33.14
486.932	33.19
487.134	33.18
487.335	33.24
487.536	33.23
487.737	33.22
487.938	33.23
488.139	33.18
488.341	33.23
488.542	33.24
488.743	33.26
488.944	33.22
489.145	33.23
489.346	33.23
489.547	33.16
489.748	33.14
489.949	33.18
490.15	33.23
490.351	33.26
490.552	33.16
490.753	33.28
490.954	33.25
491.155	33.28
491.356	33.31
491.557	33.29
491.758	33.28
491.959	33.35
492.159	33.37
492.36	33.41
492.561	33.49
492.762	33.55
492.963	33.45
493.164	33.5
493.364	33.51
493.565	33.5
493.766	33.57
493.967	33.51
494.167	33.52
494.368	33.53
494.569	33.39
494.769	33.28
494.97	33.25
495.171	33.31
495.371	33.36
495.572	33.3
495.773	33.18
495.973	33.13
496.174	33.33
496.375	33.29
496.575	33.32
496.776	33.38
496.976	33.38
497.177	33.41
497.377	33.31
497.578	33.3
497.778	33.33
497.979	33.47
498.179	33.5
498.38	33.48
498.58	33.49
498.78	33.39
498.981	33.38
499.181	33.4
499.382	33.48
499.582	33.6
499.782	33.55
499.983	33.6
500.183	33.52
500.383	33.51
500.584	33.47
500.784	33.5
500.984	33.64
501.184	33.79
501.385	33.76
501.585	33.7
501.785	33.73
501.985	33.84
502.185	33.83
502.386	33.87
502.586	33.87
502.786	33.89
502.986	33.87
503.186	33.92
503.386	33.89
503.586	33.95
503.786	33.89
503.987	33.97
504.187	33.86
504.387	33.86
504.587	33.84
504.787	33.93
504.987	34.04
505.187	34.04
505.387	34.04
505.587	34.08
505.786	34.14
505.986	34.19
506.186	34.24
506.386	34.17
506.586	34.26
506.786	34.33
506.986	34.37
507.186	34.25
507.386	34.36
507.585	34.27
507.785	34.2
507.985	34.11
508.185	34.1
508.384	34.03
508.584	34.14
508.784	34.19
508.984	34.19
509.183	34.14
509.383	34.22
509.583	34.21
509.782	34.24
509.982	34.24
510.182	34.28
510.381	34.3
510.581	34.26
510.781	34.25
510.98	34.24
511.18	34.22
511.379	34.27
511.579	34.27
511.778	34.32
511.978	34.38
512.177	34.38
512.377	34.37
512.576	34.46
512.776	34.62
512.975	34.57
513.175	34.55
513.374	34.57
513.573	34.62
513.773	34.5
513.972	34.45
514.172	34.38
514.371	34.47
514.57	34.6
514.77	34.56
514.969	34.44
515.168	34.51
515.367	34.59
515.567	34.66
515.766	34.5
515.965	34.66
516.164	34.72
516.364	34.76
516.563	34.78
516.762	34.7
516.961	34.73
517.16	34.74
517.359	34.82
517.559	34.84
517.758	34.75
517.957	34.83
518.156	34.73
518.355	34.73
518.554	34.74
518.753	34.67
518.952	34.71
519.151	34.72
519.35	34.75
519.549	34.72
519.748	34.69
519.947	34.79
520.146	34.87
520.345	34.94
520.544	34.91
520.743	34.97
520.942	35
521.141	35.04
521.339	35.01
521.538	35.05
521.737	35.11
521.936	35.02
522.135	35.01
522.333	34.85
522.532	34.91
522.731	34.94
522.93	34.91
523.129	34.9
523.327	34.89
523.526	34.9
523.725	34.81
523.923	34.86
524.122	34.95
524.321	34.92
524.519	35.01
524.718	34.98
524.917	34.93
525.115	34.9
525.314	35.03
525.512	35.02
525.711	35.06
525.909	35.09
526.108	35.05
526.306	34.98
526.505	34.99
526.703	35
526.902	35.02
527.1	35.03
527.299	35.1
527.497	35.05
527.696	35.04
527.894	35.03
528.092	35.01
528.291	34.98
528.489	35
528.688	35
528.886	35.03
529.084	35.02
529.283	35.04
529.481	35.02
529.679	35.01
529.877	35
530.076	35.01
530.274	35.06
530.472	35.11
530.67	35.13
530.869	35.16
531.067	35.12
531.265	35.17
531.463	35.15
531.661	35.13
531.859	35.21
532.057	35.22
532.255	35.22
532.454	35.2
532.652	35.23
532.85	35.3
533.048	35.33
533.246	35.36
533.444	35.35
533.642	35.34
533.84	35.33
534.038	35.29
534.236	35.3
534.434	35.33
534.632	35.38
534.83	35.33
535.027	35.27
535.225	35.32
535.423	35.3
535.621	35.35
535.819	35.41
536.017	35.45
536.215	35.41
536.412	35.47
536.61	35.46
536.808	35.45
537.006	35.45
537.203	35.52
537.401	35.45
537.599	35.48
537.797	35.46
537.994	35.48
538.192	35.46
538.39	35.58
538.587	35.57
538.785	35.63
538.983	35.67
539.18	35.67
539.378	35.68
539.575	35.72
539.773	35.72
539.97	35.67
540.168	35.65
540.366	35.7
540.563	35.65
540.761	35.67
540.958	35.68
541.155	35.66
541.353	35.64
541.55	35.6
541.748	35.59
541.945	35.52
542.143	35.6
542.34	35.67
542.537	35.67
542.735	35.7
542.932	35.66
543.129	35.62
543.327	35.62
543.524	35.73
543.721	35.79
543.919	35.82
544.116	35.83
544.313	35.83
544.51	35.72
544.708	35.77
544.905	35.79
545.102	35.86
545.299	35.89
545.496	36.02
545.693	35.97
545.891	35.99
546.088	35.98
546.285	36.01
546.482	36.03
546.679	36.08
546.876	35.95
547.073	35.94
547.27	35.98
547.467	35.92
547.664	35.84
547.861	35.94
548.058	35.92
548.255	35.99
548.452	35.98
548.649	35.88
548.846	35.85
549.043	35.79
549.24	35.69
549.437	35.54
549.633	35.69
549.83	35.7
550.027	35.65
550.224	35.49
550.421	35.44
550.618	35.54
550.814	35.61
551.011	35.65
551.208	35.86
551.405	35.95
551.601	35.9
551.798	35.85
551.995	35.78
552.191	35.79
552.388	35.86
552.585	35.83
552.781	35.78
552.978	35.71
553.175	35.64
553.371	35.6
553.568	35.57
553.764	35.65
553.961	35.6
554.157	35.52
554.354	35.34
554.55	35.18
554.747	35.07
554.943	35.12
555.14	35.16
555.336	35.24
555.533	35.24
555.729	35.45
555.926	35.57
556.122	35.66
556.318	35.76
556.515	35.84
556.711	36.04
556.907	36.23
557.104	36.14
557.3	36.24
557.496	36.22
557.693	36.25
557.889	35.94
558.085	35.95
558.281	35.83
558.478	35.78
558.674	35.78
558.87	35.75
559.066	35.69
559.262	35.74
559.459	35.53
559.655	35.58
559.851	35.55
560.047	35.61
560.243	35.51
560.439	35.55
560.635	35.64
560.831	35.67
561.027	35.72
561.223	35.67
561.419	35.75
561.615	35.91
561.811	35.84
562.007	35.79
562.203	35.94
562.399	35.84
562.595	35.86
562.791	35.73
562.987	35.78
563.183	35.78
563.379	35.89
563.575	35.87
563.771	35.93
563.966	36.05
564.162	36.18
564.358	36.19
564.554	36.31
564.75	36.3
564.945	36.52
565.141	36.5
565.337	36.46
565.533	36.39
565.728	36.45
565.924	36.32
566.12	36.23
566.315	36.12
566.511	36.21
566.707	36.24
566.902	36.18
567.098	36.06
567.293	36.05
567.489	36.11
567.684	36.15
567.88	36.12
568.076	36.22
568.271	36.38
568.467	36.4
568.662	36.33
568.858	36.33
569.053	36.37
569.248	36.4
569.444	36.51
569.639	36.53
569.835	36.58
570.03	36.53
570.225	36.46
570.421	36.47
570.616	36.44
570.812	36.45
571.007	36.48
571.202	36.5
571.397	36.47
571.593	36.48
571.788	36.38
571.983	36.45
572.178	36.57
572.374	36.66
572.569	36.67
572.764	36.72
572.959	36.67
573.154	36.67
573.35	36.79
573.545	36.89
573.74	36.86
573.935	37.06
574.13	36.92
574.325	36.91
574.52	36.86
574.715	36.85
574.91	36.91
575.105	36.88
575.3	36.92
575.495	36.91
575.69	36.92
575.885	36.97
576.08	36.92
576.275	36.86
576.47	36.83
576.665	36.72
576.86	36.69
577.055	36.73
577.25	36.7
577.444	36.58
577.639	36.49
577.834	36.35
578.029	36.16
578.224	36.07
578.418	36.22
578.613	36.11
578.808	36.07
579.003	36.07
579.197	35.99
579.392	36.11
579.587	36.28
579.781	36.24
579.976	36.31
580.171	36.43
580.365	36.46
580.56	36.45
580.755	36.54
580.949	36.68
581.144	36.68
581.338	36.79
581.533	36.85
581.727	36.87
581.922	37.06
582.116	37.16
582.311	37.1
582.505	37.18
582.7	37.24
582.894	37.35
583.089	37.43
583.283	37.36
583.478	37.23
583.672	37.31
583.866	37.19
584.061	37.09
584.255	37.03
584.449	37.18
584.644	37.09
584.838	37.07
585.032	37.09
585.226	37
585.421	37.08
585.615	37.21
585.809	37.24
586.003	37.27
586.198	37.29
586.392	37.3
586.586	37.37
586.78	37.39
586.974	37.37
587.168	37.43
587.363	37.48
587.557	37.39
587.751	37.32
587.945	37.06
588.139	37.11
588.333	37.03
588.527	37.18
588.721	37.06
588.915	37.17
589.109	37.18
589.303	37.1
589.497	37.07
589.691	37.17
589.885	37.31
590.079	37.37
590.273	37.23
590.466	37.39
590.66	37.39
590.854	37.44
591.048	37.41
591.242	37.5
591.436	37.52
591.629	37.75
591.823	37.73
592.017	37.55
592.211	37.7
592.404	37.82
592.598	37.97
592.792	38.02
592.986	37.98
593.179	37.9
593.373	37.76
593.567	37.69
593.76	37.69
593.954	37.72
594.147	37.89
594.341	37.71
594.535	37.78
594.728	37.63
594.922	37.39
595.115	37.55
595.309	37.79
595.502	37.95
595.696	38.09
595.889	37.96
596.083	38.08
596.276	38
596.47	38.14
596.663	38.15
596.856	38.18
597.05	38.25
597.243	38.23
597.437	38.09
597.63	38.07
597.823	37.99
598.017	37.99
598.21	38.06
598.403	38.04
598.596	38.02
598.79	37.99
598.983	38
599.176	38.07
599.369	37.97
599.563	38.07
599.756	37.9
599.949	37.97
600.142	37.92
600.335	37.86
600.528	37.92
600.722	38.02
600.915	38.14
601.108	38.06
601.301	38.19
601.494	38.32
601.687	38.27
601.88	38.47
602.073	38.38
602.266	38.47
602.459	38.14
602.652	38.25
602.845	38.15
603.038	38.13
603.231	38.15
603.424	38.11
603.617	38.04
603.809	38.06
604.002	37.99
604.195	38.2
604.388	38.3
604.581	38.47
604.774	38.58
604.966	38.59
605.159	38.67
605.352	38.77
605.545	38.76
605.737	38.8
605.93	38.92
606.123	38.99
606.316	38.99
606.508	38.95
606.701	39.07
606.894	39
607.086	39.15
607.279	38.9
607.471	38.96
607.664	38.97
607.857	39.06
608.049	39.11
608.242	39.18
608.434	39.28
608.627	39.48
608.819	39.76
609.012	40.11
609.204	40.51
609.397	41.1
609.589	41.44
609.782	41.82
609.974	42.26
610.166	42.72
610.359	43.23
610.551	43.54
610.743	43.95
610.936	44.33
611.128	44.47
611.32	44.53
611.513	44.48
611.705	44.53
611.897	44.72
612.09	44.82
612.282	44.51
612.474	44.34
612.666	44.34
612.858	44.09
613.051	43.52
613.243	43.24
613.435	42.94
613.627	42.84
613.819	42.47
614.011	42.13
614.203	41.72
614.395	41.74
614.588	41.5
614.78	41.19
614.972	40.95
615.164	40.83
615.356	40.72
615.548	40.73
615.74	40.63
615.932	40.59
616.124	40.49
616.315	40.45
616.507	40.26
616.699	40.13
616.891	39.93
617.083	39.89
617.275	39.86
617.467	39.68
617.659	39.58
617.85	39.27
618.042	39.16
618.234	39.27
618.426	39.37
618.618	39.37
618.809	39.41
619.001	39.51
619.193	39.49
619.384	39.62
619.576	39.81
619.768	39.83
619.959	40.2
620.151	40.23
620.343	40.04
620.534	39.86
620.726	39.93
620.917	40.2
621.109	40.04
621.301	40.01
621.492	40.19
621.684	40.16
621.875	40.08
622.067	39.91
622.258	39.83
622.45	40.01
622.641	39.99
622.832	39.99
623.024	39.78
623.215	39.83
623.407	40.08
623.598	40.06
623.789	40.12
623.981	40.19
624.172	40.54
624.363	40.69
624.555	40.6
624.746	40.63
624.937	40.4
625.129	40.39
625.32	40.59
625.511	40.49
625.702	40.29
625.893	40.2
626.085	40.18
626.276	39.89
626.467	39.98
626.658	39.97
626.849	40.13
627.04	40.35
627.231	40.49
627.422	40.3
627.614	40.4
627.805	40.49
627.996	40.51
628.187	40.56
628.378	40.77
628.569	40.87
628.76	40.98
628.951	40.82
629.142	40.76
629.332	40.77
629.523	40.97
629.714	40.85
629.905	40.96
630.096	41.09
630.287	41.07
630.478	40.98
630.669	40.66
630.859	40.59
631.05	40.81
631.241	40.81
631.432	40.7
631.623	40.74
631.813	40.84
632.004	40.43
632.195	40.33
632.385	40.33
632.576	40.36
632.767	40.43
632.957	40.45
633.148	40.05
633.339	39.9
633.529	39.82
633.72	39.75
633.91	39.62
634.101	40
634.292	39.64
634.482	39.58
634.673	39.51
634.863	39.64
635.054	39.69
635.244	39.91
635.435	40.02
635.625	40.16
635.815	40.1
636.006	40.21
636.196	39.87
636.387	40.2
636.577	40.19
636.767	40.11
636.958	39.97
637.148	39.73
637.338	39.68
637.529	39.62
637.719	39.73
637.909	39.78
638.099	39.75
638.29	40
638.48	40.08
638.67	40.14
638.86	40.11
639.05	40.29
639.241	40.54
639.431	40.73
639.621	40.85
639.811	40.67
640.001	40.67
640.191	40.6
640.381	40.57
640.571	40.62
640.761	40.52
640.951	40.65
641.141	40.59
641.331	40.5
641.521	40.22
641.711	40.34
641.901	40.38
642.091	40.44
642.281	40.56
642.471	40.65
642.661	40.64
642.851	40.9
643.041	41.16
643.231	41.1
643.42	41.13
643.61	41.27
643.8	41.26
643.99	41.11
644.18	41.12
644.369	41.11
644.559	40.9
644.749	40.92
644.939	40.73
645.128	40.45
645.318	40.53
645.508	40.66
645.697	40.73
645.887	40.75
646.076	40.69
646.266	40.63
646.456	40.33
646.645	40.4
646.835	40.27
647.024	40.38
647.214	40.51
647.403	40.51
647.593	40.52
647.782	40.72
647.972	40.41
648.161	40.61
648.351	40.62
648.54	41.14
648.73	40.99
648.919	40.92
649.108	40.91
649.298	40.97
649.487	41.09
649.677	41.01
649.866	40.9
650.055	41.24
650.244	41.24
650.434	41.28
650.623	41.09
650.812	41.31
651.002	41.69
651.191	41.75
651.38	41.51
651.569	41.58
651.758	41.71
651.947	41.72
652.137	41.48
652.326	41.72
652.515	41.6
652.704	41.66
652.893	41.64
653.082	41.57
653.271	41.6
653.46	41.8
653.649	41.54
653.838	41.47
654.027	41.48
654.216	41.53
654.405	41.32
654.594	41.45
654.783	41.2
654.972	41.08
655.161	40.96
655.35	40.59
655.539	40.53
655.728	40.37
655.916	40.54
656.105	40.34
656.294	40.39
656.483	40.4
656.672	40.52
656.86	40.88
657.049	41.25
657.238	41.11
657.427	41.2
657.615	41.29
657.804	41.72
657.993	41.45
658.181	41.6
658.37	41.78
658.559	41.89
658.747	41.9
658.936	41.84
659.125	41.84
659.313	42.01
659.502	42.14
659.69	42.19
659.879	42.18
660.067	42.42
660.256	42.26
660.444	42.21
660.633	42.35
660.821	42.39
661.01	42.36
661.198	42.23
661.387	42.27
661.575	42.42
661.763	42.51
661.952	42.43
662.14	42.24
662.328	42.29
662.517	42.24
662.705	42.11
662.893	41.97
663.082	42.11
663.27	42.23
663.458	42.26
663.646	42.05
663.834	41.61
664.023	41.58
664.211	41.55
664.399	41.43
664.587	41.63
664.775	41.36
664.963	41.36
665.152	41.17
665.34	41.14
665.528	41
665.716	41.34
665.904	41.65
666.092	41.88
666.28	41.87
666.468	42.26
666.656	41.82
666.844	42.02
667.032	42.03
667.22	42.15
667.408	42.17
667.596	42.28
667.784	42.09
667.971	42.15
668.159	42.07
668.347	42.22
668.535	42.31
668.723	42.65
668.911	42.86
669.098	42.73
669.286	42.51
669.474	42.58
669.662	42.41
669.849	42.54
670.037	42.04
670.225	41.55
670.413	41.43
670.6	41.28
670.788	41
670.976	40.78
671.163	40.67
671.351	40.99
671.538	40.77
671.726	40.9
671.913	40.78
672.101	41.2
672.289	41.57
672.476	41.55
672.664	41.5
672.851	41.54
673.039	41.27
673.226	41.64
673.413	41.84
673.601	42.01
673.788	42.01
673.976	42.17
674.163	42.1
674.35	42.16
674.538	42.18
674.725	42.26
674.912	42.44
675.1	42.79
675.287	42.62
675.474	42.43
675.662	42.13
675.849	41.91
676.036	41.78
676.223	41.93
676.411	41.86
676.598	41.81
676.785	41.59
676.972	41.76
677.159	41.56
677.346	41.7
677.533	41.44
677.721	41.76
677.908	41.97
678.095	41.96
678.282	41.97
678.469	42.19
678.656	42.54
678.843	42.73
679.03	42.7
679.217	42.8
679.404	42.6
679.591	42.85
679.778	42.83
679.964	42.83
680.151	42.76
680.338	42.93
680.525	42.8
680.712	42.8
680.899	42.71
681.086	42.7
681.272	42.41
681.459	42.64
681.646	42.48
681.833	42.39
682.02	42.61
682.206	42.59
682.393	42.28
682.58	42.26
682.766	42.06
682.953	42.3
683.14	42.24
683.326	42.44
683.513	42.42
683.7	42.42
683.886	42.4
684.073	42.1
684.259	42.64
684.446	42.63
684.632	42.52
684.819	42.5
685.005	42.26
685.192	42.46
685.378	42.62
685.565	42.59
685.751	42.94
685.938	42.75
686.124	42.76
686.31	42.21
686.497	42.51
686.683	42.62
686.87	42.76
687.056	43.06
687.242	42.56
687.429	42.75
687.615	43.06
687.801	43.16
687.987	43.7
688.174	43.72
688.36	43.98
688.546	43.69
688.732	43.82
688.918	43.79
689.105	43.75
689.291	43.96
689.477	43.55
689.663	43.12
689.849	42.64
690.035	42.43
690.221	42.49
690.407	42.85
690.593	43.07
690.779	42.99
690.965	43.03
691.151	42.9
691.337	42.71
691.523	42.82
691.709	43.1
691.895	43.3
692.081	43.32
692.267	43.2
692.453	42.87
692.639	42.85
692.825	42.69
693.011	42.62
693.196	42.21
693.382	42.83
693.568	42.79
693.754	42.76
693.94	43
694.125	42.8
694.311	42.88
694.497	42.69
694.682	42.79
694.868	42.97
695.054	42.88
695.239	43.07
695.425	42.75
695.611	43.11
695.796	42.84
695.982	42.8
696.168	43.05
696.353	43.25
696.539	43.42
696.724	43.36
696.91	43.09
697.095	43.08
697.281	43.41
697.466	43.41
697.652	43.31
697.837	43.48
698.023	43.55
698.208	43.58
698.393	43.54
698.579	43.65
698.764	43.59
698.949	43.79
699.135	44.11
699.32	43.94
699.505	43.9
699.691	43.78
699.876	43.66
700.061	43.32
700.246	43.33
700.432	43.2
700.617	43.12
700.802	43.18
700.987	42.91
701.172	42.75
701.358	42.8
701.543	42.84
701.728	42.82
701.913	42.2
702.098	42.12
702.283	42.03
702.468	42.01
702.653	41.89
702.838	42.12
703.023	42.5
703.208	42.27
703.393	42.3
703.578	42.42
703.763	42.48
703.948	43.37
704.133	43.32
704.318	43.31
704.503	43.48
704.688	43.43
704.873	43.22
705.057	43.4
705.242	43.98
705.427	43.66
705.612	43.91
705.797	44.27
705.981	44.46
706.166	45.22
706.351	45.27
706.536	45.31
706.72	45.14
706.905	45.21
707.09	45.24
707.274	44.62
707.459	44.84
707.644	44.88
707.828	45.01
708.013	45.08
708.197	44.89
708.382	44.41
708.567	44.31
708.751	44.28
708.936	44.4
709.12	44.21
709.305	44.41
709.489	44.48
709.673	44.32
709.858	43.96
710.042	43.25
710.227	43.05
710.411	43.61
710.596	43.79
710.78	43.78
710.964	43.68
711.149	43.73
711.333	43.71
711.517	43.74
711.702	43.61
711.886	43.33
712.07	43.82
712.254	43.96
712.438	43.89
712.623	44.12
712.807	44.31
712.991	44.11
713.175	44.11
713.359	43.93
713.544	43.91
713.728	44.16
713.912	44.55
714.096	44.46
714.28	44.04
714.464	44.09
714.648	43.72
714.832	43.63
715.016	43.74
715.2	43.63
715.384	44.03
715.568	43.99
715.752	43.8
715.936	43.12
716.12	42.92
716.304	43.42
716.488	43.22
716.671	43.24
716.855	43.2
717.039	43.15
717.223	43.07
717.407	42.9
717.59	42.87
717.774	42.85
717.958	43.79
718.142	43.69
718.325	43.37
718.509	43.45
718.693	43.41
718.877	43.15
719.06	42.92
719.244	42.69
719.428	42.49
719.611	42.2
719.795	42.06
719.978	41.88
720.162	41.91
720.345	42
720.529	41.38
720.713	41.4
720.896	42.07
721.08	42.34
721.263	42.53
721.446	42.61
721.63	42.55
721.813	42.83
721.997	41.76
722.18	42.55
722.364	42.57
722.547	42.71
722.73	42.61
722.914	42.28
723.097	42.14
723.28	42.47
723.464	42.6
723.647	43.27
723.83	42.76
724.013	43.53
724.197	43.44
724.38	42.85
724.563	43.3
724.746	43.39
724.929	43.65
725.112	43.68
725.296	44.19
725.479	44.01
725.662	43.56
725.845	44.03
726.028	44.09
726.211	43.82
726.394	44.73
726.577	44.7
726.76	44.88
726.943	44.72
727.126	44.68
727.309	43.79
727.492	43.99
727.675	43.77
727.858	43.42
728.041	43.84
728.224	43.88
728.407	43.24
728.589	43.27
728.772	43
728.955	43.23
729.138	43.46
729.321	44.01
729.503	43.67
729.686	44.32
729.869	44.52
730.052	44.06
730.234	44
730.417	44.19
730.6	44.11
730.782	44.48
730.965	44.28
731.148	44.33
731.33	43.84
731.513	43.84
731.695	43.59
731.878	43.38
732.061	43.38
732.243	43.48
732.426	43.43
732.608	44.14
732.791	44.2
732.973	44.52
733.156	44.15
733.338	44.28
733.52	44.14
733.703	44.19
733.885	44.25
734.068	44.47
734.25	44.07
734.432	44.09
734.615	43.49
734.797	43.01
734.979	42.64
735.162	42.77
735.344	43.02
735.526	43.55
735.708	43.34
735.891	43.91
736.073	44.26
736.255	44.59
736.437	44.12
736.619	44.01
736.802	44.57
736.984	44.37
737.166	44.25
737.348	43.92
737.53	43.43
737.712	43.77
737.894	43.49
738.076	43.22
738.258	43.03
738.44	43.86
738.622	43.3
738.804	42.85
738.986	42.77
739.168	43.1
739.35	42.92
739.532	42.91
739.714	42.67
739.896	42.28
740.078	41.83
740.259	41.93
740.441	41.64
740.623	41.81
740.805	41.34
740.987	41.61
741.168	41.35
741.35	41.31
741.532	41.55
741.714	41.68
741.895	41.64
742.077	41.66
742.259	41.82
742.44	41.82
742.622	41.96
742.804	42.42
742.985	42.11
743.167	42.87
743.348	43.23
743.53	43.18
743.711	42.48
743.893	43.13
744.075	43.7
744.256	43.43
744.438	42.82
744.619	42.38
744.8	42.31
744.982	42.97
745.163	41.88
745.345	42.22
745.526	42.11
745.707	42.38
745.889	42.15
746.07	41.55
746.252	41.9
746.433	42.54
746.614	43.25
746.795	43.45
746.977	43.43
747.158	43.46
747.339	43.36
747.52	43.89
747.702	44.44
747.883	43.9
748.064	44.26
748.245	45.01
748.426	44.73
748.607	44.95
748.788	45.13
748.97	45.43
749.151	45.44
749.332	45.41
749.513	44.44
749.694	44.27
749.875	45.14
750.056	45.16
750.237	43.84
750.418	43.84
750.599	43.8
750.78	42.65
750.96	41.97
751.141	42.74
751.322	42.77
751.503	43.33
751.684	43.55
751.865	42.81
752.046	43.12
752.226	42.32
752.407	42.6
752.588	42.13
752.769	43.17
752.949	42.84
753.13	42.3
753.311	42.27
753.492	42.43
753.672	42.15
753.853	42.74
754.034	41.86
754.214	42.49
754.395	41.49
754.575	42.14
754.756	42.4
754.937	42.83
755.117	43.28
755.298	43.73
755.478	44.39
755.659	44.2
755.839	44.53
756.02	45.94
756.2	46.57
756.381	47.41
756.561	46.71
756.741	46.96
756.922	46.83
757.102	46.79
757.283	46.21
757.463	45.33
757.643	45.32
757.823	44.02
758.004	42.42
758.184	42.18
758.364	42.65
758.545	42.63
758.725	41.91
758.905	41.23
759.085	40.61
759.265	40.62
759.446	40.54
759.626	40.55
759.806	40.93
759.986	41.75
760.166	41.7
760.346	41.34
760.526	42.09
760.706	41.82
760.886	42.11
761.066	42.37
761.246	42.77
761.426	43.05
761.606	43.1
761.786	43.13
761.966	43.66
762.146	42.98
762.326	43.1
762.506	42.58
762.686	42.83
762.866	43.44
763.046	42.98
763.225	42.72
763.405	42.95
763.585	42.96
763.765	43.09
763.945	42.25
764.124	42.87
764.304	42.98
764.484	42.74
764.664	42.5
764.843	42.18
765.023	42.82
765.203	42.77
765.382	41.93
765.562	41.53
765.741	41.21
765.921	41.59
766.101	41.07
766.28	40.58
766.46	40.48
766.639	41.02
766.819	40.74
766.998	39.68
767.178	39.85
767.357	40.31
767.537	40.62
767.716	41.3
767.896	41.57
768.075	41.99
768.254	42.48
768.434	42.89
768.613	42.69
768.792	42.69
768.972	43.58
769.151	43.55
769.33	43.45
769.51	43.33
769.689	42.68
769.868	42.9
770.047	41.99
770.226	41.93
770.406	42.29
770.585	41.9
770.764	42.49
770.943	42
771.122	41.21
771.301	41.71
771.48	42.73
771.66	43.42
771.839	41.84
772.018	42.71
772.197	42.19
772.376	41.41
772.555	41.65
772.734	41.77
772.913	42.25
773.092	41.52
773.271	41.35
773.449	39.8
773.628	40.2
773.807	41.15
773.986	41.56
774.165	41.54
774.344	42.13
774.523	42.38
774.701	42.6
774.88	41.88
775.059	42.47
775.238	42.45
775.417	43.41
775.595	42.43
775.774	42.74
775.953	42.05
776.131	42.82
776.31	42.93
776.489	43.01
776.667	42.13
776.846	42.39
777.025	42.67
777.203	43.09
777.382	43.19
777.56	43.2
777.739	42.41
777.917	42.26
778.096	42.25
778.274	41.16
778.453	40.81
778.631	39.95
778.81	41.25
778.988	41.46
779.166	40.72
779.345	40.44
779.523	40.79
779.702	40.97
779.88	41.83
780.058	41.2
780.237	42.01
780.415	42.39
780.593	42.86
780.771	42.09
780.95	41.69
781.128	41.01
781.306	41.27
781.484	40.97
781.662	40.97
781.841	40.86
782.019	40.42
782.197	40.93
782.375	40.31
782.553	40.67
782.731	39.5
782.909	39.35
783.087	41.17
783.265	41.43
783.443	40.2
783.621	40.96
783.799	40.58
783.977	40.56
784.155	39.52
784.333	39.15
784.511	38.42
784.689	40.02
784.867	40.24
785.045	39.33
785.223	38.82
785.4	38.28
785.578	36.94
785.756	38.85
785.934	39.15
786.112	39.47
786.289	39.38
786.467	40.38
786.645	39.43
786.823	39.68
787	40.4
787.178	40.34
787.356	43.05
787.533	43.52
787.711	41.72
787.889	42.72
788.066	42.48
788.244	42.88
788.421	42.28
788.599	42.98
788.776	43.02
788.954	42.43
789.131	42.16
789.309	41.29
789.486	41.33
789.664	41.57
789.841	40.73
790.019	40.48
790.196	40.54
790.373	39.3
790.551	39.19
790.728	39.59
790.906	39.03
791.083	39.29
791.26	39.6
791.437	39.99
791.615	40.89
791.792	41.8
791.969	42.16
792.146	42.16
792.324	43.8
792.501	43.47
792.678	43.39
792.855	44.66
793.032	44.71
793.209	43.82
793.387	43.31
793.564	42.84
793.741	41.3
793.918	41.73
794.095	42.78
794.272	42.01
794.449	43.31
794.626	43.56
794.803	42.59
794.98	42.6
795.157	41.7
795.334	41.27
795.511	39.68
795.688	40.55
795.864	40.64
796.041	39.52
796.218	40.19
796.395	38.67
796.572	38.44
796.749	38.27
796.925	38.55
797.102	40.44
797.279	40.02
797.456	41.19
797.632	39.63
797.809	40.18
797.986	39.5
798.162	40.27
798.339	41.45
798.516	40.41
798.692	41.35
798.869	40.99
799.046	39.44
799.222	40.14
799.399	40.79
799.575	41.03
799.752	39.36
799.928	40.42
800.105	39.76
800.281	38.8
800.458	39.57
800.634	39.4
800.811	40.06
800.987	40.23
801.163	39.88
801.34	38.43
801.516	39.09
801.692	40.34
801.869	40.03
802.045	40.15
802.221	39.24
802.398	38.23
802.574	37.11
802.75	36.79
802.926	36.74
803.103	37.71
803.279	39.27
803.455	39.54
803.631	38.3
803.807	38.28
803.983	37.91
804.16	38.63
804.336	39.78
804.512	40.9
804.688	40.29
804.864	41.68
805.04	42.27
805.216	40.52
805.392	40.84
805.568	41.8
805.744	41.26
805.92	41.25
806.096	40.26
806.272	39.94
806.448	39.35
806.623	39.54
806.799	38.39
806.975	37.81
807.151	37.82
807.327	38.81
807.503	39.67
807.678	41.29
807.854	40.8
808.03	42.07
808.206	42.59
808.381	43.35
808.557	42.57
808.733	41.96
808.908	41.94
809.084	42.75
809.26	40.48
809.435	41.04
809.611	41.1
809.787	42.24
809.962	41.36
810.138	42.48
810.313	41.05
810.489	40.52
810.664	41.79
810.84	40.76
811.015	41.18
811.191	41.14
811.366	39.36
811.542	38.17
811.717	37.43
811.892	37.96
812.068	36.51
812.243	36.18
812.419	37.43
812.594	37.21
812.769	38.93
812.944	38.29
813.12	39.07
813.295	40.05
813.47	39.61
813.645	41.45
813.821	42.65
813.996	43.86
814.171	45.38
814.346	46.27
814.521	45.66
814.697	44.92
814.872	45.95
815.047	46.15
815.222	45.09
815.397	45.72
815.572	43.86
815.747	43.59
815.922	41.73
816.097	40.44
816.272	38.87
816.447	38.59
816.622	37.69
816.797	37.21
816.972	37.64
817.147	37.93
817.322	37.51
817.496	37.52
817.671	38.13
817.846	38.46
818.021	38.67
818.196	38.34
818.371	37.6
818.545	39.29
818.72	38.27
818.895	38.32
819.069	37.58
819.244	36.87
819.419	36.68
819.594	36.6
819.768	36.77
819.943	37.07
820.117	39.18
820.292	40.67
820.467	40.58
820.641	41.75
820.816	41.3
820.99	41.56
821.165	42.14
821.339	41.88
821.514	41.8
821.688	41.67
821.863	41.43
822.037	41.1
822.212	40.8
822.386	40.59
822.56	40.13
822.735	40.22
822.909	40.3
823.084	40.34
823.258	40.38
823.432	40.21
823.606	39.95
823.781	40.19
823.955	40.11
824.129	40.26
824.303	40.03
824.478	40.2
824.652	40.26
824.826	39.78
825	39.67
825.174	40.04
825.348	39.92
825.523	40.8
825.697	40.57
825.871	40.35
826.045	40.72
826.219	41.15
826.393	41.5
826.567	41.55
826.741	42.17
826.915	41.97
827.089	41.78
827.263	41.8
827.437	41.17
827.611	41.28
827.784	41.14
827.958	40.88
828.132	40.33
828.306	39.74
828.48	39.19
828.654	38.32
828.827	38.03
829.001	37.64
829.175	37.26
829.349	37.18
829.522	36.59
829.696	36.45
829.87	35.36
830.044	35.63
830.217	35.35
830.391	35.24
830.565	35.55
830.738	34.61
830.912	34.39
831.085	33.91
831.259	32.92
831.432	34.33
831.606	34.93
831.779	34.96
831.953	34.53
832.126	33.82
832.3	33.73
832.473	34.87
832.647	35.5
832.82	35.4
832.994	35.3
833.167	35.56
833.34	34.18
833.514	33.67
833.687	34.39
833.86	34.7
834.034	35.37
834.207	35.88
834.38	35.35
834.553	35.68
834.727	37.3
834.9	37.97
835.073	38.85
835.246	39.59
835.419	41.17
835.593	41.27
835.766	41.89
835.939	41.99
836.112	41.87
836.285	42.59
836.458	42.91
836.631	41.05
836.804	40.46
836.977	40.95
837.15	40.67
837.323	38.92
837.496	40.49
837.669	40.27
837.842	42.73
838.015	45.34
838.188	44.09
838.361	44.16
838.533	43.04
838.706	44.72
838.879	44.49
839.052	44.97
839.225	44.04
839.398	41.71
839.57	40.2
839.743	38.28
839.916	35.44
840.088	37.13
840.261	38.2
840.434	39.91
840.607	38.25
840.779	36.6
840.952	36.39
841.124	36.72
841.297	37.16
841.47	38.79
841.642	39.86
841.815	41.2
841.987	41.9
842.16	40.99
842.332	39.12
842.505	39.26
842.677	38.37
842.85	37.77
843.022	38.62
843.194	36.37
843.367	34.49
843.539	31.93
843.712	30.49
843.884	28.19
844.056	25.48
844.229	23.17
844.401	23.23
844.573	24.02
844.745	23.88
844.918	22.58
845.09	23.4
845.262	21.56
845.434	23.12
845.606	24.4
845.779	22.14
845.951	22.41
846.123	26.83
846.295	28.34
846.467	30.41
846.639	33.9
846.811	32.33
846.983	35.29
847.155	37.64
847.327	38.32
847.499	37.59
847.671	39.82
847.843	41.18
848.015	41.02
848.187	40.02
848.359	39.69
848.531	39.59
848.703	42.21
848.875	41.56
849.047	37.83
849.218	39.69
849.39	38.71
849.562	40.33
849.734	40.92
849.905	40.92
850.077	37.37
850.249	39.37
850.421	34.11
850.592	30.73
850.764	29.74
850.936	34.56
851.107	30.28
851.279	30.96
851.451	27.16
851.622	28.28
851.794	28.24
851.965	31.49
852.137	28.96
852.308	28.66
852.48	33.99
852.651	31.96
852.823	27.47
852.994	26.84
853.166	27.12
853.337	30.86
853.509	27.42
853.68	26.32
853.851	27.89
854.023	29.23
854.194	34.1
854.365	32.51
854.537	34.44
854.708	38.62
854.879	38.39
855.05	38.47
855.222	36.57
855.393	41.7
855.564	43.3
855.735	40.05
855.906	40.18
856.078	38.51
856.249	35.25
856.42	30.34
856.591	30.48
856.762	33.99
856.933	31.03
857.104	31.09
857.275	31.09
857.446	29.14
857.617	32.97
857.788	25.9
857.959	24.93
858.13	27
858.301	28.59
858.472	25.39
858.643	25.29
858.814	26.95
858.985	22.84
859.155	20.2
859.326	23.48
859.497	20.72
859.668	27.65
859.839	27.46
860.009	26.39
860.18	29.45
860.351	32.48
860.522	32.96
860.692	30.94
860.863	37.93
861.034	40.31
861.204	32.75
861.375	31.79
861.546	31.2
861.716	36.14
861.887	40.35
862.057	41.03
862.228	41.9
862.398	38.67
862.569	43.27
862.739	40.02
862.91	36.48
863.08	38.23
863.251	41.31
863.421	40.42
863.592	37.47
863.762	32.95
863.932	29.96
864.103	32.59
864.273	35.95
864.443	32.51
864.614	35.52
864.784	36.87
864.954	40.19
865.125	37.92
865.295	37.39
865.465	33.53
865.635	34.99
865.805	36.41
865.976	30.63
866.146	27.83
866.316	30.22
866.486	31.96
866.656	35.4
866.826	31.77
866.996	34.41
867.166	35.32
867.336	34.55
867.506	28.21
867.676	31.17
867.846	32.83
868.016	33.77
868.186	32.08
868.356	31.7
868.526	31.42
868.696	30.94
868.866	29.63
869.036	27.03
869.206	25.96
869.376	28.21
869.545	27.5
869.715	27.63
869.885	29.25
870.055	31.4
870.224	27.55
870.394	24.92
870.564	31.62
870.734	33.21
870.903	32.85
871.073	36.38
871.243	40.24
871.412	41.33
871.582	43.7
871.751	40.46
871.921	39.1
872.091	42.04
872.26	39.61
872.43	36.37
872.599	35.12
872.769	36
872.938	38.73
873.108	34.54
873.277	32.72
873.446	33.7
873.616	34.66
873.785	35.22
873.955	33.89
874.124	34.56
874.293	34.74
874.463	34.25
874.632	39.32
874.801	39.54
874.971	41.69
875.14	38.92
875.309	34.61
875.478	38.48
875.647	35.36
875.817	37.51
875.986	38.95
876.155	39.93
876.324	39.62
876.493	35.59
876.662	34.65
876.831	37.78
877	42.45
877.17	40.87
877.339	35.91
877.508	43.68
877.677	43.04
877.846	37.82
878.015	35.91
878.184	36.4
878.352	32.57
878.521	30.79
878.69	33.2
878.859	29.99
879.028	31.29
879.197	32.12
879.366	27.34
879.534	25.95
879.703	30.84
879.872	31
880.041	30.32
880.21	34.71
880.378	35.96
880.547	34.22
880.716	35.49
880.884	34.9
881.053	35.34
881.222	35.92
881.39	36.49
881.559	35.6
881.727	36.74
881.896	37.07
882.065	37.25
882.233	36.82
882.402	36.84
882.57	37.57
882.739	37.98
882.907	38.47
883.076	38.33
883.244	37.18
883.412	37.41
883.581	36.17
883.749	35.71
883.918	35.13
884.086	34.32
884.254	34.2
884.423	32.92
884.591	31.66
884.759	29.88
884.927	29.48
885.096	30.78
885.264	30.23
885.432	29.9
885.6	29.81
885.769	29.6
885.937	31.43
886.105	31.55
886.273	30.07
886.441	32.07
886.609	30.95
886.777	32.18
886.945	31.91
887.113	32.85
887.281	33.04
887.449	34.04
887.617	32.48
887.785	30.05
887.953	30.05
888.121	33.63
888.289	32.13
888.457	32.16
888.625	28.76
888.793	28.12
888.961	27.24
889.129	27.46
889.296	24.75
889.464	23.15
889.632	26.47
889.8	24.02
889.967	18.63
890.135	17.82
