Data from 2937894_Reflection_3.txt Node
Date: Wed Jul 15 13:58:14 EDT 2015
User: robert
Spectrometer: USB4E03001
Autoset integration time: false
Trigger mode: 4
Integration Time (sec): 1.000000E-1
Scans to average: 10
Electric dark correction enabled: true
Nonlinearity correction enabled: false
Boxcar width: 5
Stray light correction enabled: false
XAxis mode: Wavelengths
Stop averaging: false
Number of Pixels in Spectrum: 3648
>>>>>Begin Spectral Data<<<<<
177.566	-62.35
177.785	-477.55
178.005	-522.64
178.225	-45.39
178.445	20.86
178.665	-110.64
178.885	64.2
179.105	55.53
179.324	42.46
179.544	41.19
179.764	53.05
179.984	22.67
180.204	11.72
180.423	73.65
180.643	75.34
180.863	109.49
181.083	101.96
181.302	227.4
181.522	173.04
181.742	-2029.72
181.961	-146.86
182.181	-291.81
182.401	-109.07
182.621	-111.73
182.84	-81.72
183.06	-217.14
183.279	-66.72
183.499	-224.46
183.719	-1053.16
183.938	333.72
184.158	161.25
184.377	86.06
184.597	86.85
184.816	24.71
185.036	29.45
185.256	39.52
185.475	8.27
185.695	55.01
185.914	124.11
186.134	164.03
186.353	112.61
186.572	134.83
186.792	286.74
187.011	194.47
187.231	246.04
187.45	533.74
187.67	222.77
187.889	288.31
188.108	97.39
188.328	52.19
188.547	57.73
188.766	98.23
188.986	97.87
189.205	55.51
189.424	62.81
189.644	26.7
189.863	-24.58
190.082	352.29
190.302	132.39
190.521	-105.6
190.74	-86.32
190.959	0.39
191.178	-110.69
191.398	71.15
191.617	-41.45
191.836	304.21
192.055	141.57
192.274	66.92
192.494	40.67
192.713	6.49
192.932	0.9
193.151	-8.94
193.37	-11.3
193.589	-3.56
193.808	0.6
194.027	-11.45
194.246	316.41
194.465	1678.36
194.685	488.09
194.904	96.62
195.123	128.32
195.342	68.13
195.561	101.48
195.78	-13.09
195.999	-9.66
196.218	-25.66
196.436	-59.74
196.655	44633.33
196.874	-380.44
197.093	-477.48
197.312	332.25
197.531	570.48
197.75	386.74
197.969	1674.72
198.188	525.41
198.407	265.55
198.625	182.55
198.844	136.58
199.063	192.27
199.282	263.86
199.501	447.66
199.719	3559.69
199.938	307.96
200.157	885.74
200.376	352.91
200.594	792.24
200.813	-147.6
201.032	-27.11
201.251	-4.65
201.469	335.08
201.688	135.55
201.907	42.84
202.125	266.07
202.344	426.51
202.563	198.86
202.781	142.85
203	-94.13
203.218	-502.52
203.437	336.07
203.656	-14.92
203.874	-52.13
204.093	-111.11
204.311	-96.72
204.53	-307.57
204.748	-295.86
204.967	8283.19
205.185	1254.47
205.404	-7169.4
205.622	429.07
205.841	315.3
206.059	266.18
206.278	2271.84
206.496	574.4
206.715	332.97
206.933	223.78
207.151	1249.51
207.37	-18200
207.588	764.71
207.806	-163
208.025	-291.7
208.243	-183.28
208.461	-121.87
208.68	26.46
208.898	-116.15
209.116	-46.67
209.335	1.04
209.553	30.1
209.771	67.66
209.989	65.66
210.208	92.8
210.426	90.45
210.644	100.09
210.862	141.75
211.081	163.46
211.299	231.47
211.517	172.35
211.735	173.96
211.953	138.51
212.171	93.47
212.39	118.96
212.608	99.81
212.826	106.31
213.044	80.49
213.262	61.49
213.48	40.71
213.698	61.73
213.916	64.38
214.134	87.59
214.352	84.83
214.57	156.31
214.788	145.14
215.006	185.76
215.224	186.76
215.442	177.86
215.66	195.38
215.878	203.52
216.096	587.77
216.314	1094.14
216.532	-1114.53
216.75	571.34
216.968	324.42
217.185	403.94
217.403	489.86
217.621	808.71
217.839	-235.32
218.057	-451.2
218.275	-372.44
218.492	1353.64
218.71	368.96
218.928	251.75
219.146	-160.46
219.363	50.6
219.581	2681.25
219.799	-32.06
220.017	21.32
220.234	-17.72
220.452	-46.15
220.67	-139
220.887	-178.81
221.105	-4866.22
221.323	231.9
221.54	73.62
221.758	108.86
221.976	227.21
222.193	15.32
222.411	12.69
222.629	-55.44
222.846	-69.52
223.064	-202.18
223.281	-87.13
223.499	-93.22
223.716	-142.94
223.934	-181.42
224.151	-255.98
224.369	-505.9
224.586	-336.55
224.804	-390.38
225.021	-162.35
225.239	-143.51
225.456	-61.66
225.674	-42.77
225.891	-40.03
226.108	-22.29
226.326	16.48
226.543	10.54
226.76	19.42
226.978	5.46
227.195	8.84
227.413	-18.9
227.63	-12.08
227.847	-7.03
228.064	-17.65
228.282	-18.43
228.499	-14.96
228.716	-11.99
228.934	-9.12
229.151	-10.65
229.368	-5.51
229.585	-4.05
229.802	2.73
230.02	1.23
230.237	-0.18
230.454	-0.42
230.671	5.49
230.888	6.19
231.105	1.15
231.323	2.31
231.54	-5.46
231.757	-1.36
231.974	-9.06
232.191	-12.78
232.408	-12.18
232.625	-15.76
232.842	-11.11
233.059	-15.38
233.276	-24.59
233.493	-21.24
233.71	-16.17
233.927	-11.66
234.144	-25.72
234.361	-21.33
234.578	-19.9
234.795	-18.32
235.012	-25.81
235.229	-26.12
235.446	-25.41
235.663	-17.26
235.879	-15.5
236.096	-21.82
236.313	-24.93
236.53	-26.65
236.747	-24.61
236.964	-18.63
237.181	-17.9
237.397	-11.22
237.614	-10.8
237.831	-11.68
238.048	-13.15
238.264	-11.91
238.481	-18.98
238.698	-18.67
238.915	-12.2
239.131	-16.26
239.348	-23.58
239.565	-18.5
239.781	-14.55
239.998	-6.34
240.215	-3.5
240.431	-0.19
240.648	0.11
240.865	7.27
241.081	6.44
241.298	3.51
241.514	6.86
241.731	6.44
241.947	4.02
242.164	3.02
242.38	0.03
242.597	-1.82
242.814	-4.65
243.03	-5.15
243.246	-7.58
243.463	-6.75
243.679	-6.94
243.896	-7.79
244.112	-7.9
244.329	-8.51
244.545	-7.82
244.762	-3.85
244.978	-3.27
245.194	-3.27
245.411	-2.78
245.627	-3.17
245.843	-3.71
246.06	-4.58
246.276	-5.59
246.492	-6.29
246.709	-6.45
246.925	-5.38
247.141	-6.04
247.357	-5.98
247.574	-5.43
247.79	-5.34
248.006	-4.48
248.222	-4.06
248.439	-3.54
248.655	-3.51
248.871	-3.69
249.087	-2.92
249.303	-4.38
249.519	-5.01
249.736	-5.49
249.952	-6.17
250.168	-7.43
250.384	-7.93
250.6	-9.46
250.816	-9.4
251.032	-10.19
251.248	-9.72
251.464	-9.88
251.68	-8.71
251.896	-10.56
252.112	-9.55
252.328	-9.28
252.544	-9.3
252.76	-10.9
252.976	-8.89
253.192	-6.77
253.408	-6.82
253.624	-4.96
253.84	-4.46
254.056	-7.94
254.272	-4.14
254.487	-2.55
254.703	-2.09
254.919	-1.53
255.135	2.79
255.351	0.93
255.567	-5.96
255.782	-6.88
255.998	-10.52
256.214	-10
256.43	-9.26
256.646	-9.52
256.861	-14.1
257.077	-15.73
257.293	-14.28
257.508	-15.69
257.724	-14.02
257.94	-13.28
258.155	-9.7
258.371	-5.86
258.587	-7
258.802	-5.22
259.018	-5.39
259.234	-3.22
259.449	-2.77
259.665	-3
259.88	-2.97
260.096	-2.88
260.312	-1.51
260.527	-2.5
260.743	-3.29
260.958	-3.51
261.174	-3.79
261.389	-3.51
261.605	-4.79
261.82	-5.46
262.036	-5.46
262.251	-4.68
262.466	-4.27
262.682	-7.81
262.897	-7.27
263.113	-6.45
263.328	-3.79
263.543	-2.84
263.759	-5
263.974	-6.1
264.189	-4.77
264.405	-5.08
264.62	-5.38
264.835	-6.45
265.051	-3.63
265.266	-4.24
265.481	-6.31
265.696	-7.14
265.912	-6.63
266.127	-5.08
266.342	-3.63
266.557	-4.13
266.773	-4.93
266.988	-6.56
267.203	-6.47
267.418	-8.34
267.633	-7.05
267.848	-7.56
268.064	-6.31
268.279	-6.79
268.494	-6.09
268.709	-5.19
268.924	-6.39
269.139	-5.56
269.354	-5.36
269.569	-5.71
269.784	-3.96
269.999	-4.82
270.214	-4.78
270.429	-7.3
270.644	-6.22
270.859	-4.49
271.074	-6.7
271.289	-3.5
271.504	-3.42
271.719	-2.37
271.934	-3.33
272.149	-2.36
272.363	-1.58
272.578	-1.06
272.793	0.51
273.008	-0.19
273.223	-1.86
273.438	-0.54
273.653	-3.96
273.867	-5.39
274.082	-6.66
274.297	-5.52
274.512	-8.14
274.726	-9.42
274.941	-11.05
275.156	-12.32
275.371	-10.13
275.585	-11.07
275.8	-10.98
276.015	-9.16
276.229	-7.22
276.444	-6.78
276.659	-7.74
276.873	-7.02
277.088	-7.44
277.302	-4.98
277.517	-4.33
277.732	-7.88
277.946	-6.89
278.161	-7.26
278.375	-6.01
278.59	-7.57
278.804	-7.88
279.019	-7.31
279.233	-3.62
279.448	-2.66
279.662	-2.18
279.877	-4.43
280.091	-1.45
280.306	-1.39
280.52	-0.63
280.735	-0.99
280.949	0.24
281.163	-0.62
281.378	-0.85
281.592	-2.5
281.806	-0.74
282.021	-0.66
282.235	-2.31
282.449	-1.31
282.664	-1.07
282.878	-1.89
283.092	-1.49
283.307	-1.35
283.521	0.46
283.735	1.54
283.949	1.88
284.164	0.79
284.378	-0.21
284.592	2.23
284.806	-0.49
285.02	-1
285.234	-1.69
285.449	-1.77
285.663	-1.34
285.877	-2.33
286.091	-2.82
286.305	-2.42
286.519	-1.6
286.733	-1.3
286.947	-0.79
287.161	0.33
287.375	1.5
287.589	2.11
287.803	2.55
288.017	-0.38
288.231	-0.29
288.445	-1.17
288.659	-1.04
288.873	-1.89
289.087	-3.25
289.301	-5.1
289.515	-6.33
289.729	-5.61
289.943	-6.33
290.157	-5
290.371	-3.85
290.584	-3.39
290.798	-3.34
291.012	-4.06
291.226	-4.22
291.44	-2.54
291.654	-0.88
291.867	-0.46
292.081	-3.55
292.295	-2.13
292.509	-4.45
292.722	-1.6
292.936	-1.95
293.15	-1
293.364	-1.13
293.577	-2.54
293.791	-1.17
294.005	-1.27
294.218	-1.99
294.432	-1.26
294.645	-1.38
294.859	-1.93
295.073	-2.5
295.286	-1.82
295.5	-2.69
295.713	-2.1
295.927	0.52
296.14	-0.71
296.354	-2.21
296.568	-0.95
296.781	-0.02
296.994	0.34
297.208	0.18
297.421	0.26
297.635	-1.38
297.848	0.07
298.062	0.49
298.275	-1.43
298.489	-1.54
298.702	-0.06
298.915	-1.14
299.129	-1.58
299.342	-1.45
299.555	-1.51
299.769	-1.63
299.982	-0.14
300.195	-0.4
300.409	-0.94
300.622	0.88
300.835	1
301.048	-1.24
301.262	0.84
301.475	1.21
301.688	1.13
301.901	2.8
302.115	3.58
302.328	2.58
302.541	3.45
302.754	1.79
302.967	1.36
303.18	0.95
303.393	1.89
303.607	0.27
303.82	0.37
304.033	-0.13
304.246	-2.3
304.459	-2.84
304.672	-1.07
304.885	-2.91
305.098	-2.16
305.311	-2
305.524	0.25
305.737	0.22
305.95	1.24
306.163	1.01
306.376	0.8
306.589	3.27
306.802	1.2
307.015	0.71
307.228	1.79
307.44	1.81
307.653	1.74
307.866	-0.9
308.079	-0.06
308.292	0.43
308.505	2.02
308.718	1.28
308.93	1.27
309.143	2.96
309.356	1.94
309.569	1
309.781	1.52
309.994	2.62
310.207	2.84
310.42	2.27
310.632	2.65
310.845	1.66
311.058	3.5
311.27	4.32
311.483	3.66
311.696	4.36
311.908	5.26
312.121	4.83
312.333	3.67
312.546	4.83
312.759	6.86
312.971	7.94
313.184	9.93
313.396	8.32
313.609	6.94
313.821	7.95
314.034	8.42
314.246	7.84
314.459	8.76
314.671	9.45
314.884	7.77
315.096	4.1
315.309	1.76
315.521	-0.4
315.733	1
315.946	-0.01
316.158	0.28
316.371	0.43
316.583	0.08
316.795	0.35
317.008	-0.26
317.22	-0.35
317.432	3.23
317.644	3.13
317.857	2.11
318.069	1.03
318.281	2.44
318.494	1.34
318.706	0.87
318.918	2.25
319.13	1.8
319.342	0.41
319.555	2.37
319.767	-0.62
319.979	-0.06
320.191	1.19
320.403	1.1
320.615	0.82
320.827	-0.86
321.039	-0.87
321.252	-2.34
321.464	-2.38
321.676	-0.66
321.888	-3.9
322.1	-2.7
322.312	-1.33
322.524	-2.19
322.736	-1.47
322.948	-2.58
323.16	0.09
323.372	1.19
323.584	1.98
323.796	1.98
324.007	2.23
324.219	4.96
324.431	4.86
324.643	4
324.855	6.06
325.067	5.65
325.279	6.69
325.491	6.53
325.702	7.23
325.914	7.31
326.126	7.67
326.338	8.55
326.55	8.25
326.761	10.23
326.973	10.85
327.185	8.99
327.396	10.19
327.608	9.31
327.82	8.62
328.032	7.83
328.243	8.01
328.455	7.41
328.666	6.14
328.878	4.6
329.09	4.03
329.301	2.9
329.513	3.76
329.725	3.33
329.936	4.95
330.148	6.42
330.359	5.48
330.571	6.86
330.782	8.21
330.994	9.3
331.205	11.58
331.417	11.19
331.628	10.98
331.84	11.23
332.051	9.58
332.262	9.37
332.474	10.01
332.685	9.96
332.897	9.72
333.108	9.64
333.319	9.83
333.531	9.85
333.742	10.28
333.953	11.23
334.165	11.18
334.376	11.9
334.587	11.06
334.799	9.7
335.01	12.36
335.221	11.04
335.432	10.8
335.644	11.61
335.855	11
336.066	12.74
336.277	12.47
336.488	12.8
336.7	13.3
336.911	14.35
337.122	15.36
337.333	14.12
337.544	14.93
337.755	15.01
337.966	14.35
338.177	13.95
338.388	11.79
338.599	10.61
338.811	8.8
339.022	10.13
339.233	9.63
339.444	8.01
339.655	4.89
339.866	5.97
340.076	5.29
340.287	4.98
340.498	6.22
340.709	6.15
340.92	7.79
341.131	8.39
341.342	6.95
341.553	7.87
341.764	10.02
341.975	13.72
342.185	13.24
342.396	13.74
342.607	14.38
342.818	14.3
343.029	15.56
343.239	15.9
343.45	15.88
343.661	16.7
343.872	15.79
344.082	13.96
344.293	12.97
344.504	13.4
344.714	13.92
344.925	13.84
345.136	13.57
345.346	12.94
345.557	12.66
345.768	12.7
345.978	11.71
346.189	12.82
346.399	13.28
346.61	14.26
346.821	12.25
347.031	12.35
347.242	10.51
347.452	10.04
347.663	10.25
347.873	8.84
348.084	9.87
348.294	10.29
348.504	10.46
348.715	11.45
348.925	10.88
349.136	12.7
349.346	11.38
349.557	14.11
349.767	15.25
349.977	14.22
350.188	15.17
350.398	16.36
350.608	16.77
350.819	16.07
351.029	15.4
351.239	15.93
351.449	14.64
351.66	14.77
351.87	12.49
352.08	13.62
352.29	14.25
352.501	14.8
352.711	15.23
352.921	15.59
353.131	15.83
353.341	14.88
353.552	13.92
353.762	15.21
353.972	15.72
354.182	16.86
354.392	15.43
354.602	15.42
354.812	14.75
355.022	13.11
355.232	14.41
355.442	14.52
355.652	15.89
355.862	15.3
356.072	15.25
356.282	16.38
356.492	15.21
356.702	14.65
356.912	14.61
357.122	16.04
357.332	15.94
357.542	14.19
357.752	14.26
357.962	14.31
358.171	15.49
358.381	15.25
358.591	14.51
358.801	15.79
359.011	15.9
359.221	16.74
359.43	16.32
359.64	16.03
359.85	17.24
360.06	16.62
360.269	16.41
360.479	15.86
360.689	15.65
360.899	15.98
361.108	15.39
361.318	15.66
361.528	14.96
361.737	15.29
361.947	15.82
362.156	15.63
362.366	16.36
362.576	16.65
362.785	16.82
362.995	17.91
363.204	17.85
363.414	18.37
363.623	19.17
363.833	19.23
364.042	18.88
364.252	18.65
364.461	19.4
364.671	19.59
364.88	20.05
365.09	20.87
365.299	20.18
365.509	20.3
365.718	21.43
365.927	21.1
366.137	21.47
366.346	21.8
366.555	21.51
366.765	20.34
366.974	20.13
367.183	19.77
367.393	19.47
367.602	19.4
367.811	18.61
368.021	17.35
368.23	17.07
368.439	17.64
368.648	17.5
368.857	17.6
369.067	18.23
369.276	17.75
369.485	17.31
369.694	16.46
369.903	16.38
370.112	17.05
370.321	17.26
370.531	18.54
370.74	18.41
370.949	18.13
371.158	18.39
371.367	17.34
371.576	17.4
371.785	17.6
371.994	18.04
372.203	18.21
372.412	18.4
372.621	18.63
372.83	17.98
373.039	18.23
373.248	18.22
373.457	18.29
373.666	18.71
373.874	19.64
374.083	19.62
374.292	19.01
374.501	19.76
374.71	18.92
374.919	18.28
375.128	18.52
375.336	17.97
375.545	18.46
375.754	19.32
375.963	20.09
376.171	19.22
376.38	19.44
376.589	20.53
376.798	20.36
377.006	21.53
377.215	21.87
377.424	22.11
377.632	22.83
377.841	22.5
378.05	21.94
378.258	21.94
378.467	22.51
378.675	22.69
378.884	22.7
379.093	22.05
379.301	22.09
379.51	22.5
379.718	22.46
379.927	22.03
380.135	22.41
380.344	22.36
380.552	21.78
380.761	21.85
380.969	22
381.177	21.81
381.386	22.22
381.594	21.87
381.803	21.94
382.011	21.43
382.219	21.64
382.428	21.47
382.636	22.2
382.845	23.23
383.053	23.13
383.261	22.89
383.469	23.52
383.678	23.69
383.886	23.66
384.094	24.04
384.302	24.4
384.511	24.6
384.719	24.86
384.927	24.37
385.135	24.12
385.343	23.95
385.552	24.43
385.76	23.82
385.968	23.93
386.176	24.45
386.384	23.79
386.592	23.81
386.8	23.94
387.008	24.24
387.216	24.98
387.424	25.22
387.633	25.71
387.841	25.1
388.049	25.58
388.257	25.4
388.465	25.07
388.672	25.56
388.88	25.62
389.088	25.61
389.296	25.26
389.504	24.87
389.712	25.17
389.92	24.91
390.128	25.84
390.336	25.7
390.544	25.97
390.751	26.13
390.959	26.11
391.167	26.03
391.375	25.85
391.583	26.38
391.79	26.47
391.998	25.9
392.206	26.45
392.414	26.23
392.621	26.64
392.829	26.76
393.037	26.92
393.244	27.24
393.452	27.9
393.66	28.05
393.867	28.04
394.075	28.38
394.283	28.55
394.49	28.53
394.698	28.58
394.905	28.87
395.113	28.88
395.32	28.86
395.528	28.94
395.735	28.46
395.943	28.78
396.15	28.88
396.358	28.66
396.565	28.94
396.773	28.9
396.98	29
397.188	28.77
397.395	29.32
397.602	29.56
397.81	29.63
398.017	30
398.225	30.37
398.432	30.3
398.639	30.66
398.847	30.81
399.054	31.21
399.261	31.65
399.468	32.04
399.676	32.05
399.883	32.07
400.09	32.44
400.297	32.78
400.505	32.92
400.712	33.12
400.919	33.46
401.126	33.11
401.333	33.11
401.54	33.28
401.748	33.08
401.955	32.96
402.162	33.58
402.369	33.38
402.576	33.33
402.783	33.23
402.99	33.04
403.197	33.07
403.404	33.87
403.611	33.76
403.818	33.73
404.025	33.78
404.232	34.04
404.439	33.76
404.646	33.93
404.853	33.93
405.06	33.9
405.267	34.7
405.474	34.74
405.681	34.79
405.887	34.88
406.094	34.81
406.301	34.72
406.508	34.75
406.715	34.91
406.922	34.73
407.128	34.91
407.335	35.05
407.542	34.7
407.749	34.85
407.955	34.79
408.162	35
408.369	34.99
408.575	34.93
408.782	35.04
408.989	35.08
409.195	35.55
409.402	35.26
409.609	35.09
409.815	34.97
410.022	34.64
410.228	34.3
410.435	34.28
410.642	34.21
410.848	34.57
411.055	34.71
411.261	34.78
411.468	34.71
411.674	35.4
411.881	35.83
412.087	35.51
412.294	35.8
412.5	35.79
412.706	35.75
412.913	35.8
413.119	35.69
413.326	35.55
413.532	35.39
413.738	35.4
413.945	35.19
414.151	34.99
414.357	35.43
414.564	35.49
414.77	35.76
414.976	35.93
415.182	36.07
415.389	36.24
415.595	36.05
415.801	36.02
416.007	35.82
416.214	35.47
416.42	35.82
416.626	36.04
416.832	36
417.038	35.97
417.244	35.65
417.45	35.51
417.657	35.29
417.863	35.32
418.069	34.97
418.275	35.23
418.481	35.23
418.687	34.89
418.893	34.49
419.099	34.56
419.305	34.44
419.511	34.57
419.717	34.63
419.923	34.87
420.129	34.71
420.335	34.93
420.541	34.69
420.746	34.83
420.952	34.79
421.158	34.84
421.364	34.87
421.57	35.05
421.776	35.13
421.982	35.03
422.187	34.88
422.393	35.12
422.599	35.13
422.805	35.04
423.01	34.81
423.216	34.76
423.422	34.78
423.628	34.64
423.833	34.5
424.039	34.21
424.245	34.17
424.45	34.12
424.656	34.01
424.862	34.09
425.067	34.3
425.273	34.41
425.478	34.47
425.684	34.54
425.889	34.49
426.095	34.44
426.301	34.83
426.506	35.02
426.712	35.19
426.917	35
427.123	34.78
427.328	34.71
427.533	34.57
427.739	34.48
427.944	34.44
428.15	34.38
428.355	34.47
428.561	34.25
428.766	34.05
428.971	33.75
429.177	33.95
429.382	34
429.587	34.1
429.793	33.92
429.998	33.73
430.203	33.66
430.408	33.47
430.614	33.55
430.819	33.26
431.024	33.36
431.229	33.6
431.434	33.4
431.64	33.35
431.845	33.35
432.05	33.72
432.255	33.81
432.46	33.7
432.665	33.9
432.87	33.62
433.076	33.9
433.281	33.9
433.486	33.68
433.691	33.83
433.896	33.93
434.101	33.83
434.306	33.83
434.511	33.96
434.716	33.86
434.921	33.53
435.126	33.63
435.331	33.59
435.535	33.36
435.74	33.78
435.945	33.84
436.15	33.9
436.355	33.75
436.56	33.82
436.765	33.95
436.97	34.09
437.174	34.51
437.379	34.49
437.584	34.48
437.789	34.54
437.993	34.38
438.198	34.25
438.403	34.16
438.608	34.21
438.812	33.73
439.017	33.68
439.222	33.64
439.426	33.51
439.631	33.51
439.836	33.43
440.04	33.48
440.245	33.42
440.45	33.33
440.654	33.41
440.859	33.57
441.063	33.67
441.268	33.55
441.472	33.75
441.677	33.85
441.881	33.82
442.086	33.78
442.29	33.88
442.495	33.79
442.699	33.96
442.904	33.84
443.108	33.75
443.312	33.72
443.517	33.71
443.721	33.68
443.925	33.47
444.13	33.63
444.334	33.88
444.538	33.81
444.743	33.71
444.947	33.74
445.151	33.68
445.356	33.8
445.56	34.03
445.764	33.85
445.968	33.76
446.173	33.75
446.377	33.7
446.581	33.59
446.785	33.68
446.989	33.81
447.193	33.62
447.398	33.63
447.602	33.32
447.806	33.3
448.01	33.4
448.214	33.38
448.418	33.36
448.622	33.33
448.826	33.29
449.03	33.15
449.234	32.98
449.438	33
449.642	33.14
449.846	33.23
450.05	33.16
450.254	33.14
450.458	33.27
450.662	33.24
450.866	33.21
451.069	32.92
451.273	32.85
451.477	32.94
451.681	32.95
451.885	32.86
452.089	33.01
452.292	32.86
452.496	32.85
452.7	32.65
452.904	32.68
453.107	32.51
453.311	32.71
453.515	32.77
453.719	32.75
453.922	32.96
454.126	32.99
454.33	32.83
454.533	32.84
454.737	32.94
454.94	32.98
455.144	32.75
455.348	32.9
455.551	32.79
455.755	32.82
455.958	32.81
456.162	32.87
456.365	32.7
456.569	32.63
456.772	32.6
456.976	32.68
457.179	32.62
457.383	32.73
457.586	32.5
457.79	32.6
457.993	32.66
458.196	32.71
458.4	32.62
458.603	32.76
458.807	33.07
459.01	33.04
459.213	32.91
459.417	33
459.62	33.05
459.823	33.23
460.026	33.29
460.23	33.3
460.433	33.31
460.636	33.34
460.839	33.37
461.042	33.29
461.246	33.41
461.449	33.49
461.652	33.32
461.855	33.49
462.058	33.63
462.261	33.5
462.464	33.37
462.668	33.38
462.871	33.37
463.074	33.19
463.277	33.38
463.48	33.24
463.683	33.3
463.886	33.47
464.089	33.28
464.292	33.08
464.495	33.18
464.698	33.29
464.901	33.35
465.104	33.47
465.306	33.63
465.509	33.52
465.712	33.78
465.915	33.67
466.118	33.77
466.321	33.91
466.524	34.16
466.726	34.15
466.929	34.25
467.132	34.07
467.335	33.82
467.538	33.89
467.74	33.64
467.943	33.75
468.146	34.12
468.348	33.95
468.551	33.89
468.754	33.78
468.956	33.95
469.159	33.99
469.362	34.14
469.564	34.29
469.767	34.13
469.969	34.19
470.172	34.14
470.375	33.79
470.577	33.85
470.78	33.73
470.982	33.74
471.185	33.77
471.387	33.61
471.59	33.69
471.792	33.86
471.995	33.93
472.197	33.86
472.399	33.99
472.602	34.06
472.804	34.1
473.007	34.43
473.209	34.42
473.411	34.37
473.614	34.26
473.816	34.23
474.018	33.99
474.22	34.24
474.423	34.49
474.625	34.1
474.827	34.21
475.03	34.47
475.232	34.25
475.434	34.35
475.636	34.27
475.838	34.49
476.04	34.29
476.243	34.38
476.445	34.33
476.647	34.32
476.849	34.35
477.051	34.32
477.253	34.05
477.455	34.02
477.657	34.03
477.859	34.14
478.061	34.28
478.263	34.36
478.465	34.45
478.667	34.52
478.869	34.5
479.071	34.85
479.273	34.9
479.475	35.1
479.677	35.33
479.879	35.3
480.081	35.39
480.283	35.09
480.485	35.11
480.686	34.9
480.888	34.59
481.09	34.53
481.292	34.44
481.494	34.48
481.695	34.31
481.897	34.24
482.099	34.12
482.301	34.11
482.502	34.26
482.704	34.28
482.906	34.27
483.107	34.38
483.309	34.47
483.511	34.42
483.712	34.35
483.914	34.39
484.115	34.26
484.317	34.35
484.519	34.29
484.72	34.22
484.922	34.22
485.123	34.26
485.325	34.22
485.526	34.11
485.728	34.07
485.929	34.12
486.131	34.09
486.332	34.26
486.534	34.22
486.735	34.17
486.936	34.25
487.138	34.31
487.339	34.34
487.541	34.36
487.742	34.37
487.943	34.41
488.144	34.4
488.346	34.38
488.547	34.33
488.748	34.29
488.95	34.38
489.151	34.24
489.352	34.12
489.553	34.05
489.755	33.94
489.956	33.98
490.157	33.96
490.358	34.03
490.559	34.15
490.76	34.22
490.961	34.27
491.163	34.19
491.364	34.4
491.565	34.39
491.766	34.43
491.967	34.51
492.168	34.44
492.369	34.38
492.57	34.21
492.771	34.12
492.972	34.19
493.173	34.12
493.374	34.19
493.575	34.08
493.776	34.08
493.976	34
494.177	33.9
494.378	33.96
494.579	34.07
494.78	34.17
494.981	34.16
495.182	33.95
495.382	34.06
495.583	34
495.784	33.96
495.985	33.94
496.185	33.93
496.386	33.97
496.587	33.88
496.788	33.89
496.988	33.93
497.189	33.8
497.39	33.87
497.59	33.83
497.791	33.94
497.992	33.98
498.192	34.02
498.393	34.1
498.593	34.19
498.794	34.17
498.994	34.15
499.195	34.03
499.395	34.31
499.596	34.28
499.796	34.32
499.997	34.31
500.197	34.3
500.398	34.3
500.598	34.08
500.799	33.92
500.999	33.96
501.199	34.07
501.4	34.26
501.6	34.02
501.801	34.09
502.001	33.79
502.201	33.75
502.402	33.79
502.602	33.78
502.802	34.04
503.002	34.16
503.203	34.24
503.403	34.2
503.603	33.98
503.803	34.27
504.003	34.19
504.204	34.44
504.404	34.33
504.604	34.34
504.804	34.48
505.004	34.55
505.204	34.71
505.404	34.56
505.604	34.54
505.804	34.6
506.005	34.36
506.205	34.34
506.405	34.28
506.605	34.39
506.805	34.47
507.005	34.42
507.204	34.26
507.404	34.13
507.604	34.26
507.804	34.19
508.004	34.18
508.204	34.22
508.404	34.3
508.604	34.39
508.804	34.46
509.003	34.52
509.203	34.55
509.403	34.68
509.603	34.73
509.803	34.85
510.002	34.98
510.202	35.13
510.402	35.32
510.602	35.32
510.801	35.16
511.001	35.12
511.201	34.92
511.4	34.83
511.6	34.9
511.8	34.9
511.999	34.92
512.199	34.77
512.398	34.71
512.598	34.61
512.797	34.78
512.997	34.94
513.197	34.97
513.396	35.29
513.596	35.3
513.795	35.2
513.994	35.09
514.194	34.89
514.393	34.91
514.593	34.82
514.792	34.67
514.992	34.44
515.191	34.41
515.39	34.35
515.59	34.12
515.789	34.23
515.988	34.3
516.188	34.39
516.387	34.5
516.586	34.65
516.786	34.89
516.985	35.08
517.184	35.16
517.383	35.2
517.582	35.15
517.782	35.25
517.981	35.3
518.18	35.23
518.379	35.22
518.578	35.19
518.777	35.15
518.976	34.99
519.176	34.86
519.375	34.81
519.574	34.77
519.773	34.87
519.972	34.71
520.171	34.53
520.37	34.55
520.569	34.49
520.768	34.54
520.967	34.51
521.166	34.54
521.365	34.54
521.564	34.55
521.762	34.48
521.961	34.39
522.16	34.52
522.359	34.7
522.558	34.73
522.757	34.82
522.956	34.75
523.154	34.77
523.353	34.91
523.552	35.04
523.751	35.02
523.949	35.14
524.148	35.2
524.347	35.17
524.546	35.04
524.744	35.02
524.943	34.96
525.142	35.08
525.34	35.2
525.539	35.1
525.737	35.12
525.936	35.23
526.135	35.21
526.333	35.27
526.532	35.25
526.73	35.28
526.929	35.29
527.127	35.48
527.326	35.34
527.524	35.32
527.723	35.26
527.921	35.12
528.12	35.07
528.318	35.07
528.516	35
528.715	35.01
528.913	35.01
529.112	35.02
529.31	34.97
529.508	34.98
529.707	34.93
529.905	35
530.103	35.12
530.301	35.19
530.5	35.22
530.698	35.3
530.896	35.28
531.094	35.26
531.293	35.25
531.491	35.29
531.689	35.28
531.887	35.32
532.085	35.34
532.283	35.3
532.481	35.19
532.68	35.19
532.878	35.02
533.076	35.11
533.274	35.29
533.472	35.21
533.67	35
533.868	35.11
534.066	35.12
534.264	35.06
534.462	35.07
534.66	35.06
534.858	34.92
535.056	35.06
535.253	35.05
535.451	34.97
535.649	34.98
535.847	35.18
536.045	35.13
536.243	35.09
536.441	35.22
536.638	35.24
536.836	35.22
537.034	35.26
537.232	35.21
537.43	35.02
537.627	34.94
537.825	34.92
538.023	34.86
538.22	34.85
538.418	34.67
538.616	34.5
538.813	34.44
539.011	34.55
539.209	34.73
539.406	34.74
539.604	34.93
539.801	34.93
539.999	34.96
540.196	34.84
540.394	34.75
540.591	34.85
540.789	35.01
540.986	35.08
541.184	35.03
541.381	34.84
541.579	34.83
541.776	34.74
541.974	34.77
542.171	34.79
542.368	34.88
542.566	34.97
542.763	34.94
542.96	34.82
543.158	34.77
543.355	34.77
543.552	34.99
543.75	34.98
543.947	35.04
544.144	35.11
544.341	35.03
544.539	34.93
544.736	34.87
544.933	34.79
545.13	34.76
545.327	34.59
545.524	34.51
545.722	34.52
545.919	34.55
546.116	34.56
546.313	34.48
546.51	34.59
546.707	34.67
546.904	34.73
547.101	34.78
547.298	34.73
547.495	34.79
547.692	34.8
547.889	34.65
548.086	34.63
548.283	34.7
548.48	34.65
548.677	34.67
548.874	34.66
549.07	34.7
549.267	34.75
549.464	34.88
549.661	34.79
549.858	34.89
550.055	34.76
550.251	34.7
550.448	34.58
550.645	34.58
550.842	34.6
551.038	34.61
551.235	34.65
551.432	34.89
551.628	34.93
551.825	35.22
552.022	35.03
552.218	35.05
552.415	35.15
552.612	35.3
552.808	35.21
553.005	34.95
553.201	35.03
553.398	34.91
553.594	34.8
553.791	34.78
553.987	34.72
554.184	34.83
554.38	35.02
554.577	35.12
554.773	34.87
554.97	35.11
555.166	35.33
555.362	35.34
555.559	35.36
555.755	35.32
555.952	35.29
556.148	35.2
556.344	35
556.541	35
556.737	34.86
556.933	34.9
557.129	34.55
557.326	34.43
557.522	34.4
557.718	34.56
557.914	34.35
558.11	34.48
558.307	34.58
558.503	34.71
558.699	34.47
558.895	34.61
559.091	34.54
559.287	34.69
559.483	34.69
559.679	34.62
559.876	34.3
560.072	34.59
560.268	34.4
560.464	34.44
560.66	34.6
560.856	34.75
561.052	34.78
561.247	34.84
561.443	34.61
561.639	34.87
561.835	34.93
562.031	34.88
562.227	34.62
562.423	34.6
562.619	34.54
562.815	34.58
563.01	34.5
563.206	34.25
563.402	34.56
563.598	34.89
563.793	34.59
563.989	34.66
564.185	34.94
564.381	35.11
564.576	35.17
564.772	35.15
564.968	34.81
565.163	34.83
565.359	34.94
565.555	34.77
565.75	34.71
565.946	34.86
566.141	34.7
566.337	34.62
566.532	34.73
566.728	34.86
566.923	34.76
567.119	34.94
567.314	34.98
567.51	35.01
567.705	35.02
567.901	34.97
568.096	34.95
568.292	34.9
568.487	34.84
568.682	34.74
568.878	34.68
569.073	34.84
569.268	34.96
569.464	35.2
569.659	35.25
569.854	35.19
570.05	35.19
570.245	35.41
570.44	35.6
570.635	35.69
570.831	35.64
571.026	35.76
571.221	35.49
571.416	35.51
571.611	35.28
571.806	35.32
572.002	35.2
572.197	35.45
572.392	35.37
572.587	35.2
572.782	35.16
572.977	35.34
573.172	35.01
573.367	35.38
573.562	35.3
573.757	35.22
573.952	34.83
574.147	35.02
574.342	34.88
574.537	34.74
574.732	34.84
574.927	34.94
575.121	34.74
575.316	34.95
575.511	34.8
575.706	34.79
575.901	35.03
576.096	35.2
576.29	35.17
576.485	35.05
576.68	35.19
576.875	35.23
577.069	35.03
577.264	35.12
577.459	34.86
577.654	34.79
577.848	34.83
578.043	34.58
578.238	34.7
578.432	34.73
578.627	34.71
578.821	34.49
579.016	34.86
579.21	35.23
579.405	35.27
579.6	35.09
579.794	35.12
579.989	35.12
580.183	35.15
580.378	35.25
580.572	35.04
580.766	34.97
580.961	35.06
581.155	34.54
581.35	34.27
581.544	34.3
581.738	34.56
581.933	34.61
582.127	34.2
582.321	34.28
582.516	34.1
582.71	34.28
582.904	34.39
583.099	34.37
583.293	34.45
583.487	34.25
583.681	34.35
583.875	34.55
584.07	34.39
584.264	34.75
584.458	34.8
584.652	34.44
584.846	34.31
585.04	34.6
585.234	34.34
585.428	34.61
585.623	34.95
585.817	34.87
586.011	35.09
586.205	35.16
586.399	34.95
586.593	34.78
586.787	35.14
586.981	35.29
587.174	35.06
587.368	35.28
587.562	34.92
587.756	34.95
587.95	34.74
588.144	34.49
588.338	34.49
588.532	34.8
588.725	34.95
588.919	34.83
589.113	34.7
589.307	34.51
589.501	34.58
589.694	34.79
589.888	34.78
590.082	34.82
590.275	34.78
590.469	34.88
590.663	34.54
590.856	34.71
591.05	34.97
591.244	35.2
591.437	35.58
591.631	35.58
591.824	35.66
592.018	35.6
592.212	35.66
592.405	35.61
592.599	35.5
592.792	35.6
592.986	35.3
593.179	35.09
593.372	34.98
593.566	34.85
593.759	34.94
593.953	34.97
594.146	34.82
594.339	34.89
594.533	34.72
594.726	34.53
594.92	34.66
595.113	34.72
595.306	34.86
595.499	34.62
595.693	34.79
595.886	34.56
596.079	34.3
596.272	34.38
596.466	34.29
596.659	34.67
596.852	34.82
597.045	35.04
597.238	35.24
597.431	34.81
597.624	34.86
597.818	34.88
598.011	34.85
598.204	34.96
598.397	35.27
598.59	35.22
598.783	35.05
598.976	35.06
599.169	34.78
599.362	34.72
599.555	35.08
599.748	35.12
599.941	35.12
600.134	35.32
600.326	35.23
600.519	34.86
600.712	35.03
600.905	35.14
601.098	35.03
601.291	34.67
601.483	34.66
601.676	34.74
601.869	35.2
602.062	34.95
602.255	34.95
602.447	34.89
602.64	34.59
602.833	34.45
603.025	34.67
603.218	34.71
603.411	34.93
603.603	34.79
603.796	34.83
603.989	34.73
604.181	34.42
604.374	34.3
604.566	34.4
604.759	34.3
604.951	34.56
605.144	34.35
605.336	34.62
605.529	34.79
605.721	34.71
605.914	34.71
606.106	34.71
606.299	34.84
606.491	34.85
606.683	34.91
606.876	35.35
607.068	35.17
607.26	35.03
607.453	34.83
607.645	34.78
607.837	34.83
608.03	34.88
608.222	34.79
608.414	35.28
608.606	35.34
608.799	35.14
608.991	35.18
609.183	34.94
609.375	34.92
609.567	34.79
609.759	34.48
609.952	34.27
610.144	34.1
610.336	34.02
610.528	33.9
610.72	33.68
610.912	33.66
611.104	33.63
611.296	33.62
611.488	33.94
611.68	33.92
611.872	34.09
612.064	34.24
612.256	34.22
612.448	34.3
612.64	34.37
612.832	34.33
613.023	34.42
613.215	34.2
613.407	34.38
613.599	33.99
613.791	34.23
613.983	34.23
614.174	34.55
614.366	35.03
614.558	34.92
614.75	34.55
614.941	34.55
615.133	34.6
615.325	34.7
615.516	34.53
615.708	34.88
615.9	34.96
616.091	35.17
616.283	34.84
616.475	34.17
616.666	34.01
616.858	34.36
617.049	34.31
617.241	34.06
617.432	34.32
617.624	34.54
617.815	34.4
618.007	33.92
618.198	33.98
618.39	33.89
618.581	34.06
618.773	34.12
618.964	34.28
619.155	34.62
619.347	35.19
619.538	35.01
619.729	35.22
619.921	35.27
620.112	35.41
620.303	35.19
620.494	35.48
620.686	35.52
620.877	35.77
621.068	35.7
621.259	35.8
621.451	35.6
621.642	35.53
621.833	35.06
622.024	34.7
622.215	34.98
622.406	34.99
622.597	35
622.788	35.1
622.98	35.07
623.171	34.55
623.362	34.48
623.553	34.38
623.744	34.31
623.935	34.5
624.126	34.75
624.317	34.56
624.508	34.4
624.698	34.2
624.889	34.53
625.08	34.09
625.271	34.48
625.462	34.56
625.653	34.49
625.844	34.53
626.034	34.55
626.225	34.62
626.416	34.76
626.607	34.84
626.798	34.92
626.988	34.76
627.179	35.02
627.37	35.08
627.56	34.99
627.751	34.7
627.942	34.78
628.132	34.73
628.323	34.53
628.514	34.52
628.704	34.96
628.895	34.69
629.085	34.69
629.276	34.73
629.466	34.41
629.657	34.47
629.847	34.66
630.038	34.66
630.228	34.8
630.419	34.76
630.609	34.67
630.8	34.17
630.99	34.24
631.181	33.94
631.371	33.86
631.561	34
631.752	33.71
631.942	34.01
632.132	34.19
632.323	34.32
632.513	34.41
632.703	34.25
632.893	34.44
633.084	34.62
633.274	34.69
633.464	34.63
633.654	34.61
633.844	34.84
634.034	34.47
634.225	34.3
634.415	34.18
634.605	34.48
634.795	34.66
634.985	34.66
635.175	34.5
635.365	34.93
635.555	34.83
635.745	35.11
635.935	35.28
636.125	35.54
636.315	35.68
636.505	35.94
636.695	35.7
636.885	35.8
637.075	35.71
637.265	36.17
637.455	36.28
637.644	36.45
637.834	36.33
638.024	36.42
638.214	36.14
638.404	36.1
638.593	36.01
638.783	36.18
638.973	36.38
639.163	36.12
639.352	35.98
639.542	35.69
639.732	35.46
639.921	35.47
640.111	35.36
640.301	35.63
640.49	35.39
640.68	34.74
640.87	34.61
641.059	34.28
641.249	34.64
641.438	34.15
641.628	34.26
641.817	33.93
642.007	33.55
642.196	33.56
642.386	33.58
642.575	33.89
642.764	34.21
642.954	34.52
643.143	34.46
643.333	34.14
643.522	34.28
643.711	34.32
643.901	34.74
644.09	35.03
644.279	35
644.469	34.97
644.658	34.55
644.847	35.1
645.036	34.64
645.226	34.65
645.415	34.98
645.604	35.13
645.793	35.14
645.982	35.41
646.171	35.16
646.361	35.04
646.55	35.03
646.739	35.25
646.928	34.44
647.117	34.8
647.306	34.66
647.495	34.66
647.684	34.81
647.873	34.62
648.062	34.64
648.251	34.23
648.44	34.57
648.629	34.6
648.818	34.89
649.007	34.99
649.196	34.9
649.384	34.88
649.573	34.85
649.762	34.72
649.951	34.63
650.14	34.33
650.328	34.54
650.517	34.42
650.706	34.15
650.895	33.77
651.083	33.8
651.272	33.59
651.461	33.61
651.65	33.67
651.838	34.07
652.027	33.85
652.216	33.93
652.404	34.45
652.593	34.34
652.781	34.64
652.97	35.13
653.158	35.48
653.347	35.42
653.535	35.56
653.724	35.76
653.912	35.79
654.101	36
654.289	36.27
654.478	36.03
654.666	35.73
654.855	35.9
655.043	35.42
655.231	35.39
655.42	35.49
655.608	35.42
655.796	34.9
655.985	34.75
656.173	35.06
656.361	34.9
656.55	34.71
656.738	34.87
656.926	34.59
657.114	34.09
657.302	34.66
657.491	34.74
657.679	34.87
657.867	34.86
658.055	34.46
658.243	34.09
658.431	34.35
658.619	34.68
658.807	34.5
658.996	34.53
659.184	35.16
659.372	34.45
659.56	34.83
659.748	34.71
659.936	34.94
660.124	34.99
660.311	34.97
660.499	34.96
660.687	34.88
660.875	35.02
661.063	35.04
661.251	34.89
661.439	35.62
661.627	35.29
661.814	35.24
662.002	34.82
662.19	34.97
662.378	34.75
662.565	34.42
662.753	34.54
662.941	34.83
663.129	35.02
663.316	34.81
663.504	33.85
663.692	33.85
663.879	34.35
664.067	34.79
664.254	34.84
664.442	35.24
664.63	35.71
664.817	35.06
665.005	35.1
665.192	34.67
665.38	34.89
665.567	35.57
665.755	35.39
665.942	35.16
666.13	34.98
666.317	35.19
666.504	35.02
666.692	34.99
666.879	35.18
667.067	34.99
667.254	35.59
667.441	35.26
667.629	34.92
667.816	34.89
668.003	35.15
668.19	35.23
668.378	34.93
668.565	35.12
668.752	34.71
668.939	34.98
669.127	34.84
669.314	34.87
669.501	35.22
669.688	35.33
669.875	35.92
670.062	35.67
670.249	35.52
670.436	35.26
670.623	35.37
670.81	34.99
670.997	34.85
671.184	35
671.371	34.44
671.558	34.6
671.745	34.63
671.932	34.32
672.119	34.31
672.306	34.53
672.493	34.84
672.68	34.33
672.867	34.54
673.054	34.65
673.24	34.96
673.427	34.85
673.614	34.57
673.801	34.75
673.988	34.33
674.174	33.94
674.361	33.79
674.548	33.91
674.734	34.43
674.921	34.66
675.108	34.54
675.294	34.57
675.481	34.69
675.668	34.79
675.854	34.08
676.041	34.57
676.227	35.2
676.414	35.39
676.601	35.66
676.787	35.72
676.974	35.42
677.16	35.25
677.347	35.04
677.533	35.1
677.719	35.01
677.906	35.07
678.092	34.51
678.279	33.82
678.465	33.84
678.651	33.75
678.838	33.54
679.024	34.06
679.21	34.56
679.397	34.68
679.583	34.54
679.769	34.49
679.955	34.74
680.142	35.01
680.328	35.03
680.514	34.97
680.7	34.73
680.886	34.97
681.073	34.81
681.259	35.01
681.445	34.24
681.631	34.64
681.817	34.46
682.003	34.25
682.189	34.21
682.375	34.57
682.561	35.16
682.747	35.39
682.933	34.95
683.119	34.87
683.305	34.34
683.491	34.87
683.677	34.59
683.863	34.74
684.049	34.89
684.235	34.53
684.42	34.75
684.606	34.06
684.792	34.17
684.978	34.47
685.164	34.68
685.349	34.14
685.535	33.74
685.721	34.1
685.907	33.8
686.092	33.67
686.278	33.84
686.464	33.54
686.649	33.81
686.835	33.67
687.021	33.13
687.206	33.02
687.392	33.28
687.577	33.72
687.763	33.95
687.948	34.4
688.134	34.32
688.319	34.41
688.505	34.01
688.69	34.24
688.876	34.03
689.061	34.37
689.247	34.51
689.432	34.72
689.618	34.97
689.803	34.47
689.988	34.87
690.174	35.35
690.359	35.08
690.544	35.58
690.73	35.16
690.915	35.87
691.1	36.31
691.285	36.17
691.471	36.12
691.656	35.79
691.841	35.87
692.026	35.25
692.211	35.4
692.396	35.81
692.582	35.75
692.767	36.01
692.952	35.3
693.137	34.93
693.322	35.37
693.507	35.58
693.692	35.57
693.877	35.56
694.062	36.04
694.247	36.01
694.432	35.93
694.617	35.97
694.802	35.19
694.987	35.25
695.172	34.49
695.357	33.52
695.541	33.61
695.726	34.01
695.911	33.89
696.096	33.93
696.281	33.71
696.466	34.17
696.65	33.84
696.835	34.42
697.02	34.63
697.204	35.25
697.389	36.2
697.574	35.83
697.759	35.7
697.943	35.5
698.128	35.02
698.312	35.01
698.497	34.72
698.682	34.8
698.866	34.8
699.051	34.9
699.235	34.79
699.42	34.07
699.604	33.95
699.789	33.7
699.973	34.16
700.158	34.26
700.342	34.28
700.527	34.29
700.711	34.25
700.895	33.93
701.08	32.71
701.264	32.48
701.448	32.73
701.633	33.03
701.817	33.45
702.001	32.17
702.186	31.08
702.37	30.65
702.554	29.89
702.738	29.29
702.923	30.4
703.107	31.51
703.291	31.45
703.475	32.26
703.659	32.91
703.843	32.59
704.027	33.39
704.212	34.16
704.396	34.54
704.58	35.09
704.764	35.69
704.948	33.8
705.132	33.81
705.316	34.44
705.5	33.77
705.684	33.27
705.868	33.21
706.052	32.48
706.235	32.23
706.419	32.29
706.603	33.13
706.787	33.85
706.971	34.53
707.155	34.6
707.339	34.43
707.522	34.32
707.706	32.97
707.89	32.65
708.074	32.83
708.257	34
708.441	34.14
708.625	33.64
708.808	33.13
708.992	33.47
709.176	32.59
709.359	32.68
709.543	32.15
709.727	32.46
709.91	32.45
710.094	32.74
710.277	31.72
710.461	30.96
710.644	31.17
710.828	30.83
711.011	30.48
711.195	30.93
711.378	31.08
711.562	31.46
711.745	31.67
711.928	31.52
712.112	32.23
712.295	32.6
712.478	33.08
712.662	32.53
712.845	33.01
713.028	32.61
713.212	32.92
713.395	32.81
713.578	32.74
713.761	33.14
713.945	33.7
714.128	33.33
714.311	33.89
714.494	33.48
714.677	33.67
714.86	32.69
715.043	33.93
715.227	33.46
715.41	33.95
715.593	33.86
715.776	34.64
715.959	34.9
716.142	34.7
716.325	34.82
716.508	35.24
716.691	35.85
716.874	36.78
717.057	36.04
717.239	35.79
717.422	34.76
717.605	34.51
717.788	34.39
717.971	34.58
718.154	35.52
718.337	34.87
718.519	35.11
718.702	35.09
718.885	35.62
719.068	35.93
719.25	36.49
719.433	37.13
719.616	38.22
719.798	37.33
719.981	36.99
720.164	37.19
720.346	36.53
720.529	36.8
720.712	34.92
720.894	34.3
721.077	34.21
721.259	33.69
721.442	34.12
721.624	33.47
721.807	33.93
721.989	32.74
722.172	31.37
722.354	31.43
722.537	31.1
722.719	31.83
722.901	31.72
723.084	32.4
723.266	33.71
723.448	33.44
723.631	34.02
723.813	33.52
723.995	35.38
724.178	36.29
724.36	37.51
724.542	36.02
724.724	36.23
724.907	36.39
725.089	35.37
725.271	34.26
725.453	34.66
725.635	32.69
725.817	32.33
725.999	31.58
726.181	30.94
726.364	31.27
726.546	32.13
726.728	32.58
726.91	33.43
727.092	33.93
727.274	34.65
727.456	33.47
727.638	33.64
727.819	34.96
728.001	35.32
728.183	34.48
728.365	33.63
728.547	34.23
728.729	33.45
728.911	32.68
729.093	32.22
729.274	31.93
729.456	32.09
729.638	33.62
729.82	33.33
730.001	32.44
730.183	33.02
730.365	33.93
730.546	33.51
730.728	34.5
730.91	34.28
731.091	33.45
731.273	32.96
731.455	33
731.636	32.15
731.818	31.36
731.999	31.66
732.181	31.57
732.362	31.61
732.544	30.99
732.725	29.92
732.907	30.2
733.088	31.39
733.27	31.7
733.451	31.04
733.633	32.22
733.814	32.73
733.995	33.39
734.177	33.53
734.358	31.71
734.539	31.27
734.721	32.4
734.902	31.5
735.083	30.45
735.264	30.65
735.446	31.72
735.627	30.97
735.808	31.41
735.989	30.24
736.17	31.44
736.351	32.57
736.533	33.6
736.714	32.23
736.895	31.89
737.076	33.47
737.257	34.14
737.438	34.1
737.619	34.22
737.8	33.29
737.981	34.42
738.162	31.36
738.343	31.77
738.524	31.95
738.705	31.74
738.886	31.84
739.067	29.29
739.247	28.83
739.428	28.77
739.609	28.68
739.79	30.5
739.971	29.64
740.151	30.75
740.332	30.3
740.513	30.59
740.694	30.36
740.874	31.27
741.055	32.79
741.236	32.97
741.417	33.72
741.597	34.51
741.778	33.04
741.958	32.75
742.139	34.07
742.32	34.66
742.5	33.69
742.681	34.26
742.861	34.41
743.042	34.65
743.222	35.32
743.403	34.33
743.583	33.15
743.764	33.35
743.944	34.84
744.124	34.22
744.305	34.07
744.485	34.87
744.666	35.29
744.846	35.2
745.026	35.43
745.207	34.72
745.387	34.76
745.567	35.39
745.747	34.66
745.928	33.22
746.108	33.68
746.288	31.68
746.468	30.88
746.648	31.51
746.829	29.71
747.009	27.24
747.189	26.03
747.369	26.29
747.549	26.6
747.729	27.05
747.909	27.73
748.089	27.73
748.269	28.87
748.449	29.88
748.629	27.47
748.809	28.78
748.989	32.23
749.169	32.91
749.349	33.07
749.529	32.33
749.709	32.76
749.889	32.45
750.068	32.15
750.248	33.16
750.428	32.92
750.608	35.73
750.788	36.59
750.967	34.42
751.147	34.77
751.327	35.07
751.507	34.2
751.686	32.55
751.866	32.62
752.046	33.01
752.225	32.69
752.405	33.1
752.585	31.81
752.764	30.62
752.944	31.99
753.123	32.26
753.303	30.78
753.482	30.69
753.662	30.88
753.841	30.29
754.021	30.43
754.2	30.04
754.38	29.45
754.559	30.27
754.739	30.92
754.918	31.13
755.097	29.13
755.277	30.8
755.456	31.92
755.635	32.74
755.815	33.36
755.994	32.89
756.173	33.15
756.352	33.6
756.532	32.67
756.711	33.25
756.89	32.26
757.069	33.56
757.248	32.31
757.427	32.46
757.607	34
757.786	33.65
757.965	33.15
758.144	33.88
758.323	33.24
758.502	33.63
758.681	31.87
758.86	32.75
759.039	32.04
759.218	32.65
759.397	32.19
759.576	30.13
759.755	30.71
759.934	31.93
760.113	31.33
760.291	32.19
760.47	32.36
760.649	32.78
760.828	32.2
761.007	32.82
761.186	32.74
761.364	32.67
761.543	32.88
761.722	32.94
761.901	32.17
762.079	32.8
762.258	32.2
762.437	32.9
762.615	32.7
762.794	32.87
762.972	32.28
763.151	32.09
763.33	32.03
763.508	32.82
763.687	32.67
763.865	33.46
764.044	32.73
764.222	33.18
764.401	32.6
764.579	33.11
764.758	33.16
764.936	33.88
765.114	34
765.293	33.68
765.471	32.89
765.65	32.9
765.828	31.98
766.006	32.8
766.184	31.86
766.363	32.52
766.541	32.72
766.719	32.22
766.898	31.71
767.076	31.8
767.254	31.83
767.432	33.17
767.61	32.91
767.788	32.58
767.967	32.15
768.145	31.46
768.323	29.63
768.501	30.06
768.679	30.29
768.857	29.95
769.035	29.19
769.213	29.87
769.391	28.51
769.569	28.7
769.747	31.93
769.925	29.97
770.103	33.25
770.281	34.12
770.459	33.09
770.636	32.09
770.814	33.69
770.992	33.24
771.17	32.93
771.348	33.05
771.525	33.33
771.703	30.4
771.881	32.39
772.059	29.6
772.236	28.4
772.414	26.99
772.592	28.41
772.769	27.19
772.947	28.92
773.125	29.74
773.302	30.12
773.48	28.1
773.657	28.16
773.835	28.47
774.013	29.27
774.19	31.12
774.368	30.55
774.545	28.25
774.723	29.07
774.9	27.86
775.077	27.52
775.255	27.18
775.432	27.92
775.61	29.17
775.787	27.87
775.964	28.17
776.142	29.21
776.319	29.82
776.496	31.41
776.674	32.35
776.851	32.85
777.028	30.23
777.205	30.25
777.382	31.89
777.56	30.63
777.737	30.35
777.914	30.85
778.091	30.39
778.268	32.87
778.445	32.65
778.622	28.88
778.8	28.46
778.977	31.85
779.154	31.8
779.331	30.98
779.508	32.53
779.685	31.91
779.862	30.7
780.038	26.82
780.215	25.37
780.392	24.02
780.569	23.42
780.746	21.72
780.923	20.76
781.1	21.19
781.277	19.1
781.453	16.53
781.63	17.71
781.807	19.58
781.984	21.67
782.16	23.67
782.337	28.18
782.514	31.67
782.691	32.95
782.867	32.85
783.044	32.95
783.221	31.23
783.397	31.7
783.574	31.68
783.75	31.63
783.927	36.2
784.103	34.66
784.28	29.24
784.456	27.99
784.633	31.79
784.809	29.75
784.986	30.4
785.162	31.98
785.339	31.03
785.515	26.85
785.692	24.29
785.868	16.68
786.044	15.67
786.221	19.63
786.397	20.93
786.573	17.03
786.749	18.41
786.926	20.72
787.102	23.99
787.278	21.5
787.454	28.6
787.631	31.18
787.807	36.9
787.983	37.16
788.159	38.12
788.335	36.17
788.511	38.47
788.687	37.09
788.863	34.56
789.039	32.98
789.216	37.44
789.392	35.37
789.568	33.45
789.744	31.15
789.919	31.72
790.095	29.4
790.271	28.75
790.447	29.95
790.623	35.86
790.799	35.8
790.975	35.95
791.151	33.83
791.327	33.63
791.502	34.21
791.678	33.89
791.854	34.75
792.03	33.86
792.205	35.12
792.381	30.74
792.557	24.82
792.733	21.93
792.908	22.73
793.084	24.16
793.259	24.11
793.435	23.81
793.611	23.6
793.786	20.75
793.962	19.1
794.137	16.98
794.313	16.19
794.488	19.49
794.664	20.93
794.839	19.1
795.015	19.78
795.19	18.84
795.366	18.94
795.541	20.89
795.716	23.35
795.892	26.06
796.067	27.32
796.242	29.61
796.418	28.57
796.593	28
796.768	31.06
796.944	28.86
797.119	30.67
797.294	31.45
797.469	28.76
797.644	29.2
797.82	29.4
797.995	28.65
798.17	26.78
798.345	26.89
798.52	26.79
798.695	24.06
798.87	24.59
799.045	21.75
799.22	20.64
799.395	20.3
799.57	18.92
799.745	20.42
799.92	21.19
800.095	22.31
800.27	19.42
800.445	19.65
800.62	24.09
800.795	23.66
800.97	25.36
801.145	23.43
801.319	21.73
801.494	24.16
801.669	21.67
801.844	20.15
802.018	17.39
802.193	19.43
802.368	20.08
802.543	14.19
802.717	12.85
802.892	14.12
803.067	16.17
803.241	16.78
803.416	12.41
803.59	15.48
803.765	16.67
803.94	20.38
804.114	22.46
804.289	24.1
804.463	26.77
804.638	31.66
804.812	27.7
804.986	29.25
805.161	30.77
805.335	33.05
805.51	29.16
805.684	28.88
805.858	29.46
806.033	26.18
806.207	22.14
806.381	20.13
806.556	19.06
806.73	19.93
806.904	20.24
807.078	17.86
807.253	16.23
807.427	18.82
807.601	16.41
807.775	9.65
807.949	11.17
808.123	14.08
808.298	13.1
808.472	8.85
808.646	10.27
808.82	7.43
808.994	8.67
809.168	10.02
809.342	11.59
809.516	16.82
809.69	20.88
809.864	16.77
810.038	14.06
810.212	19.46
810.385	22.83
810.559	24.66
810.733	26.32
810.907	25.36
811.081	23.38
811.255	22.62
811.428	18.28
811.602	21.01
811.776	26.98
811.95	28.32
812.123	27.68
812.297	30.37
812.471	26.49
812.644	22.84
812.818	26.85
812.992	29.12
813.165	30.69
813.339	35.28
813.512	34.47
813.686	31.57
813.86	32.32
814.033	30.28
814.207	26.34
814.38	29.16
814.554	31.91
814.727	29.23
814.9	28.36
815.074	23.64
815.247	23.21
815.421	24.16
815.594	22.66
815.767	20.8
815.941	18.83
816.114	20.13
816.287	17.44
816.46	13.8
816.634	19.47
816.807	19.67
816.98	19.98
817.153	13.93
817.327	8.02
817.5	8.14
817.673	9.12
817.846	12.88
818.019	12.69
818.192	15.52
818.365	20.33
818.538	15.57
818.711	18.06
818.884	23.27
819.057	27.66
819.23	32.16
819.403	31.02
819.576	31.75
819.749	31.91
819.922	34.31
820.095	31.91
820.268	29.63
820.441	32.85
820.614	33.2
820.786	31.57
820.959	32.52
821.132	33.53
821.305	34.77
821.477	34.38
821.65	33.89
821.823	32.89
821.996	32.77
822.168	33.77
822.341	33.1
822.514	31.42
822.686	32.35
822.859	33.16
823.031	32.58
823.204	32.71
823.376	32.25
823.549	32.84
823.722	33.02
823.894	33.26
824.067	32.81
824.239	32.4
824.411	34.11
824.584	34.26
824.756	33.81
824.929	33.37
825.101	32.95
825.273	33.16
825.446	31.96
825.618	32.15
825.79	32.07
825.963	31.9
826.135	33.08
826.307	33.35
826.479	31.79
826.652	29.64
826.824	29.15
826.996	29.87
827.168	31.44
827.34	31.13
827.512	31.94
827.684	34.18
827.856	35.48
828.029	35.77
828.201	33.66
828.373	34.83
828.545	36.65
828.717	37.65
828.889	36.2
829.061	34.97
829.232	34.71
829.404	31.03
829.576	28.77
829.748	25.41
829.92	25.01
830.092	24.55
830.264	21.71
830.436	24.84
830.607	24.25
830.779	23.61
830.951	25.14
831.123	26.28
831.294	29.89
831.466	27.61
831.638	30.73
831.809	26.23
831.981	28.27
832.153	33.59
832.324	26.93
832.496	30.91
832.667	31.57
832.839	27.28
833.011	31.64
833.182	30.56
833.354	31.05
833.525	31.7
833.697	32.16
833.868	33.47
834.039	28.39
834.211	29.09
834.382	26.76
834.554	26.28
834.725	27.79
834.896	25.66
835.068	22.52
835.239	25.33
835.41	22.53
835.581	20.34
835.753	17.72
835.924	23.89
836.095	21.68
836.266	18.02
836.438	15.4
836.609	13.88
836.78	11.66
836.951	16.57
837.122	14.1
837.293	15.08
837.464	18.57
837.635	14.08
837.806	9.81
837.977	10.97
838.148	9
838.319	14.26
838.49	15.13
838.661	11.48
838.832	12.81
839.003	3.06
839.174	5.99
839.345	11.57
839.516	17.79
839.687	13.13
839.857	8.4
840.028	10.57
840.199	10.37
840.37	14.15
840.54	17.93
840.711	13.57
840.882	22.71
841.053	23.17
841.223	18.7
841.394	16.07
841.564	13.37
841.735	20.25
841.906	29.15
842.076	29.02
842.247	29.61
842.417	34.53
842.588	33.74
842.758	25.02
842.929	25.85
843.099	28.52
843.27	29.07
843.44	41.88
843.611	39.94
843.781	35.25
843.951	29.38
844.122	26.4
844.292	14.96
844.462	21.7
844.633	30.71
844.803	24.84
844.973	-0.53
845.144	-9
845.314	-18.5
845.484	-24.74
845.654	-28.51
845.824	-35.04
845.995	-41.78
846.165	-48.19
846.335	-43.99
846.505	-80.69
846.675	-51.83
846.845	-9.25
847.015	7.38
847.185	-3.78
847.355	6.54
847.525	-13.24
847.695	-21.34
847.865	16.57
848.035	38.73
848.205	40.37
848.375	24.51
848.545	-12.07
848.715	-11.97
848.884	-58.41
849.054	-95.29
849.224	-161.85
849.394	-72.16
849.564	-85.36
849.733	-156.95
849.903	-115.11
850.073	-85.24
850.243	-18.34
850.412	30.86
850.582	22.14
850.752	46.27
850.921	60.5
851.091	61.93
851.26	61.3
851.43	52.87
851.599	45.43
851.769	48.59
851.939	25.58
852.108	4.67
852.278	-17.42
852.447	-34.75
852.616	-26.3
852.786	-39.74
852.955	-20.58
853.125	-1.14
853.294	-9.64
853.463	1.89
853.633	1.02
853.802	-6.93
853.971	-10.78
854.141	-3.28
854.31	9.82
854.479	4.25
854.648	42.38
854.818	33.39
854.987	-5.45
855.156	61.94
855.325	21.01
855.494	-11.27
855.663	14.18
855.832	12.6
856.001	35.31
856.171	46.52
856.34	42.31
856.509	13.19
856.678	26.49
856.847	-24.88
857.016	-25.79
857.185	-24.9
857.353	-35.32
857.522	-19.76
857.691	4.2
857.86	8.24
858.029	4.46
858.198	1.89
858.367	3.39
858.535	-14.95
858.704	22.19
858.873	17.82
859.042	34.67
859.21	24.91
859.379	9.69
859.548	15.71
859.717	-46.79
859.885	-11.44
860.054	-10.01
860.222	5.66
860.391	11.53
860.56	18.13
860.728	31.52
860.897	16.58
861.065	34.99
861.234	46.9
861.402	36.97
861.571	54.53
861.739	56.81
861.908	53.18
862.076	32.36
862.244	26.6
862.413	20.78
862.581	1.47
862.749	12.81
862.918	2.7
863.086	0.21
863.254	-9.71
863.423	-5.38
863.591	-8.04
863.759	-4.22
863.927	-26.11
864.096	-40.71
864.264	-80.8
864.432	-87.45
864.6	-101.5
864.768	-115.98
864.936	-662.85
865.104	-547.6
865.272	-586.42
865.44	637.93
865.608	782.26
865.776	-236.49
865.944	557.54
866.112	-251.69
866.28	-198.73
866.448	-2242.03
866.616	-241.68
866.784	12.49
866.952	1.39
867.12	-1.73
867.288	-1.64
867.455	-25.9
867.623	-84.67
867.791	-62
867.959	-76.62
868.127	-58.96
868.294	-36.82
868.462	-38.68
868.63	-40.18
868.797	-40.68
868.965	-35.28
869.133	-44.59
869.3	-2.48
869.468	-22.82
869.636	-9.58
869.803	-2.82
869.971	-27.61
870.138	-17.05
870.306	-8.73
870.473	-27.66
870.641	-25.45
870.808	-16.57
870.975	-8.42
871.143	-28.58
871.31	-27.87
871.478	-35.68
871.645	-84.05
871.812	-59.88
871.98	-30.88
872.147	-56.49
872.314	-25.77
872.482	-40.99
872.649	-58.53
872.816	-192.78
872.983	-145.76
873.15	-79.61
873.318	-63.48
873.485	-42.2
873.652	-15.52
873.819	-26.32
873.986	7.29
874.153	8.02
874.32	20.8
874.487	1.51
874.654	25.37
874.821	21.26
874.988	2.21
875.155	-26.44
875.322	-86.28
875.489	-223.95
875.656	4782.42
875.823	801.51
875.99	517.2
876.157	-831.17
876.324	-428.55
876.49	-186.21
876.657	-152.98
876.824	-115.66
876.991	5.39
877.157	57.47
877.324	69.04
877.491	48.66
877.658	61.71
877.824	63.86
877.991	59.44
878.157	42.61
878.324	12.71
878.491	-9.92
878.657	-20.81
878.824	-71.45
878.99	-320.84
879.157	-2320.21
879.323	-421.86
879.49	19926.23
879.656	2008.04
879.823	1031.54
879.989	890.21
880.156	695.1
880.322	775.13
880.488	-293.59
880.655	-239.69
880.821	-75.97
880.987	-18.88
881.154	11.17
881.32	25.66
881.486	30.97
881.652	33.37
881.819	37.98
881.985	41.08
882.151	27.5
882.317	22.98
882.483	20.86
882.649	24.92
882.816	27.55
882.982	25.29
883.148	25.87
883.314	23.14
883.48	22.45
883.646	25.11
883.812	27.43
883.978	28.75
884.144	26.81
884.31	30.21
884.476	28.31
884.642	27.66
884.807	26.85
884.973	27.47
885.139	31.87
885.305	33.15
885.471	27.88
885.637	27.27
885.802	34.35
885.968	41.49
886.134	37.46
886.3	33.83
886.465	34.03
886.631	35.57
886.797	43.19
886.962	39.94
887.128	43.71
887.293	54.01
887.459	41.68
887.625	27.44
887.79	19.19
887.956	17.55
888.121	21.43
888.287	11.53
888.452	8.71
888.618	-48.34
888.783	-231.68
