Data from 2938024_Reflection_3.txt Node
Date: Sun Jul 12 15:19:57 EDT 2015
User: robert
Spectrometer: USB4E03001
Autoset integration time: false
Trigger mode: 4
Integration Time (sec): 1.000000E-1
Scans to average: 10
Electric dark correction enabled: true
Nonlinearity correction enabled: false
Boxcar width: 5
Stray light correction enabled: false
XAxis mode: Wavelengths
Stop averaging: false
Number of Pixels in Spectrum: 3648
>>>>>Begin Spectral Data<<<<<
177.566	-199.36
177.785	1486.93
178.005	4561.7
178.225	-176.66
178.445	-7.75
178.665	-149.23
178.885	133.43
179.105	-1095.48
179.324	-1624.93
179.544	-201.21
179.764	-56.74
179.984	-132.61
180.204	-179.36
180.423	-184.19
180.643	-406.97
180.863	73.18
181.083	-3.77
181.302	-44.63
181.522	-13.1
181.742	175.6
181.961	172.62
182.181	95.14
182.401	68.56
182.621	58.92
182.84	-29.86
183.06	26.25
183.279	25.92
183.499	-28.97
183.719	-14.89
183.938	-5.75
184.158	7.86
184.377	7.1
184.597	38.63
184.816	60.85
185.036	48.69
185.256	69.31
185.475	74.97
185.695	32.36
185.914	43.78
186.134	28.49
186.353	86.52
186.572	79.65
186.792	45.7
187.011	2.36
187.231	-730.5
187.45	-233.73
187.67	-57.58
187.889	-4.07
188.108	32.83
188.328	66.31
188.547	77.35
188.766	0.53
188.986	-291.96
189.205	610.73
189.424	1539.31
189.644	4738.81
189.863	995.7
190.082	64.8
190.302	164.17
190.521	-1860.62
190.74	-87.84
190.959	-72.69
191.178	-189.5
191.398	-50.93
191.617	-12.85
191.836	14.82
192.055	16.46
192.274	12.11
192.494	24.06
192.713	36.89
192.932	41.87
193.151	27.3
193.37	54
193.589	65.27
193.808	81.3
194.027	97.83
194.246	213.17
194.465	511.82
194.685	-173.65
194.904	2.75
195.123	102.01
195.342	48.37
195.561	14.75
195.78	45.5
195.999	32.27
196.218	36.32
196.436	28.75
196.655	779.42
196.874	859.69
197.093	6505.56
197.312	-276.09
197.531	2296.97
197.75	-103.83
197.969	-39.1
198.188	-126.98
198.407	-132.98
198.625	3.63
198.844	34.16
199.063	30.5
199.282	52.19
199.501	57.66
199.719	61.78
199.938	73.99
200.157	96.67
200.376	81.63
200.594	90.29
200.813	104.48
201.032	86.32
201.251	101.55
201.469	65.62
201.688	54.09
201.907	40.02
202.125	-108.85
202.344	275.67
202.563	-609.47
202.781	2232.48
203	846.25
203.218	282.7
203.437	449.3
203.656	707.02
203.874	-274.87
204.093	-23.98
204.311	26.07
204.53	42.37
204.748	47.59
204.967	54.14
205.185	80.7
205.404	94.04
205.622	75.51
205.841	59.53
206.059	56.35
206.278	40.73
206.496	9.54
206.715	-14.81
206.933	-22.84
207.151	-12.2
207.37	-28.7
207.588	-36.73
207.806	-44.02
208.025	-103.92
208.243	-118.62
208.461	-102.86
208.68	-139.2
208.898	-28.89
209.116	-12.11
209.335	13.91
209.553	23.96
209.771	27.9
209.989	12.41
210.208	25.93
210.426	41.65
210.644	83.28
210.862	69.42
211.081	81.72
211.299	68.95
211.517	60.52
211.735	27.05
211.953	-36.75
212.171	-24.63
212.39	17.62
212.608	-7.79
212.826	25.46
213.044	-45.22
213.262	-148.35
213.48	2449.75
213.698	-826.75
213.916	-130.69
214.134	-203.83
214.352	-269.76
214.57	-219.85
214.788	-278.01
215.006	-168.2
215.224	-693.16
215.442	-496.46
215.66	-188.68
215.878	-203.62
216.096	-300.87
216.314	-498.07
216.532	-171.33
216.75	-118.44
216.968	-254.53
217.185	-235.46
217.403	-102.3
217.621	-14.54
217.839	4.36
218.057	58.5
218.275	68.56
218.492	65.86
218.71	63.15
218.928	82.83
219.146	89.46
219.363	66.04
219.581	74.9
219.799	89.77
220.017	82.53
220.234	87.32
220.452	72.46
220.67	50.12
220.887	35.86
221.105	38.69
221.323	20.81
221.54	19.44
221.758	34.21
221.976	30.61
222.193	11.56
222.411	-5.65
222.629	-28.14
222.846	-16.06
223.064	12.7
223.281	23.47
223.499	21.51
223.716	7.82
223.934	-10.92
224.151	-20.8
224.369	-6.1
224.586	8.09
224.804	10.11
225.021	-1.03
225.239	-13.13
225.456	-6.99
225.674	-7.21
225.891	-15.9
226.108	-10.23
226.326	-2.79
226.543	2.83
226.76	0.67
226.978	7.59
227.195	9.35
227.413	16.79
227.63	16.89
227.847	13.81
228.064	10.95
228.282	24.83
228.499	27.84
228.716	27.89
228.934	30.6
229.151	31.32
229.368	27.85
229.585	23.52
229.802	26.43
230.02	27.82
230.237	26.68
230.454	28.92
230.671	24.56
230.888	17.03
231.105	19.1
231.323	14.51
231.54	13.47
231.757	19.47
231.974	28.03
232.191	25.27
232.408	23.82
232.625	23.45
232.842	18.32
233.059	12.46
233.276	20.92
233.493	22.17
233.71	25.6
233.927	20.54
234.144	13.08
234.361	10.37
234.578	9.93
234.795	14.41
235.012	11.31
235.229	13.46
235.446	17.19
235.663	13.55
235.879	6.48
236.096	-0.46
236.313	3.23
236.53	3.94
236.747	4.73
236.964	4.54
237.181	0.27
237.397	2.25
237.614	-0.93
237.831	-5.52
238.048	-0.87
238.264	-1.09
238.481	4.58
238.698	1.65
238.915	2.06
239.131	-0.39
239.348	1.25
239.565	2.99
239.781	11.46
239.998	13.91
240.215	19.27
240.431	15.12
240.648	16.05
240.865	11.86
241.081	14.52
241.298	14.83
241.514	16.69
241.731	16.76
241.947	15.67
242.164	13.35
242.38	12.45
242.597	12.13
242.814	13.38
243.03	13.33
243.246	15.34
243.463	15.24
243.679	16.62
243.896	16.07
244.112	15.77
244.329	16.76
244.545	16.46
244.762	17.76
244.978	17.8
245.194	18.98
245.411	19.28
245.627	15.99
245.843	15.08
246.06	13.57
246.276	12.91
246.492	12.26
246.709	11.13
246.925	10.52
247.141	11.84
247.357	11.24
247.574	10.45
247.79	9.84
248.006	11.63
248.222	12.34
248.439	11.99
248.655	12.67
248.871	12.98
249.087	14.07
249.303	15.3
249.519	13.84
249.736	14.47
249.952	14.02
250.168	12.83
250.384	9.04
250.6	8.37
250.816	9.66
251.032	7.49
251.248	4.47
251.464	7.08
251.68	6.17
251.896	5.22
252.112	6.35
252.328	7.11
252.544	9.3
252.76	9.04
252.976	6.25
253.192	4.16
253.408	6.59
253.624	10.01
253.84	6.81
254.056	7.9
254.272	9.15
254.487	6.71
254.703	5.56
254.919	3.75
255.135	8.71
255.351	9.92
255.567	11.96
255.782	3.05
255.998	0.7
256.214	3.73
256.43	3.21
256.646	6.58
256.861	6.67
257.077	5.72
257.293	7.71
257.508	5.9
257.724	3.82
257.94	7.16
258.155	10.09
258.371	10.31
258.587	11.61
258.802	12.97
259.018	10.49
259.234	10.96
259.449	11.25
259.665	10.33
259.88	10.99
260.096	12.09
260.312	11.15
260.527	10.77
260.743	10.88
260.958	10.49
261.174	9.58
261.389	9.91
261.605	9.84
261.82	9.84
262.036	9.7
262.251	10.11
262.466	10.46
262.682	9.43
262.897	9.11
263.113	11.02
263.328	11.54
263.543	10.29
263.759	11.23
263.974	10.18
264.189	8.94
264.405	10.13
264.62	7.36
264.835	6.38
265.051	7.02
265.266	8.06
265.481	6.4
265.696	5.88
265.912	10.01
266.127	9.78
266.342	12.97
266.557	12.97
266.773	14.12
266.988	13.99
267.203	13.07
267.418	13.97
267.633	15.96
267.848	16.21
268.064	16.09
268.279	14.54
268.494	13.77
268.709	12.11
268.924	12.8
269.139	13.4
269.354	12.58
269.569	12.4
269.784	10.47
269.999	7.82
270.214	7.18
270.429	6.89
270.644	8.15
270.859	8.82
271.074	10.56
271.289	10.71
271.504	8.85
271.719	9.29
271.934	10.38
272.149	11.68
272.363	11.53
272.578	10.52
272.793	10.1
273.008	7.77
273.223	8.45
273.438	8.95
273.653	8.18
273.867	8.04
274.082	8.98
274.297	8.53
274.512	9.14
274.726	10.82
274.941	10.92
275.156	11.6
275.371	10.85
275.585	9.26
275.8	4.29
276.015	4.81
276.229	4.44
276.444	2.13
276.659	2.9
276.873	1.54
277.088	0.54
277.302	1.29
277.517	0.53
277.732	2.47
277.946	1.57
278.161	1.61
278.375	1.13
278.59	3.07
278.804	3.86
279.019	4.93
279.233	6.11
279.448	4.86
279.662	4.75
279.877	5.72
280.091	8.56
280.306	10.33
280.52	13.66
280.735	15.26
280.949	14.09
281.163	14.06
281.378	11.01
281.592	9.64
281.806	10.11
282.021	9.37
282.235	9.39
282.449	7.61
282.664	5.61
282.878	5.61
283.092	4.45
283.307	3.89
283.521	4.86
283.735	5.61
283.949	7.2
284.164	7.73
284.378	9.24
284.592	9.02
284.806	8.89
285.02	10.35
285.234	8.74
285.449	9.86
285.663	10.51
285.877	11.34
286.091	12.7
286.305	12.05
286.519	12.48
286.733	12.37
286.947	12.89
287.161	13.35
287.375	13.31
287.589	13.45
287.803	11.66
288.017	11.37
288.231	10.82
288.445	11.19
288.659	11.26
288.873	12.44
289.087	12.42
289.301	12.44
289.515	12.21
289.729	13.14
289.943	15.01
290.157	16.4
290.371	15.99
290.584	15.98
290.798	15.93
291.012	15.87
291.226	14.44
291.44	15.57
291.654	14.68
291.867	16.17
292.081	15.27
292.295	14.14
292.509	15.65
292.722	16
292.936	17.21
293.15	17.19
293.364	18.48
293.577	18.71
293.791	16.64
294.005	17.71
294.218	14.79
294.432	15.71
294.645	16.09
294.859	15.28
295.073	17.18
295.286	15.96
295.5	14
295.713	14.52
295.927	13.63
296.14	16.32
296.354	15.1
296.568	16.91
296.781	16.33
296.994	16.57
297.208	15.67
297.421	13.8
297.635	12.91
297.848	14.49
298.062	12.78
298.275	13.21
298.489	11.57
298.702	12.95
298.915	11.89
299.129	11.3
299.342	10.78
299.555	12.27
299.769	12.48
299.982	14.96
300.195	15.24
300.409	16.24
300.622	15.59
300.835	14.61
301.048	13.24
301.262	13.44
301.475	15.4
301.688	16.3
301.901	14.05
302.115	14.91
302.328	13.28
302.541	13.22
302.754	12.39
302.967	14.68
303.18	16.9
303.393	15.53
303.607	15.75
303.82	15.67
304.033	14.84
304.246	16.84
304.459	17.17
304.672	17.21
304.885	17.87
305.098	20.04
305.311	20.38
305.524	22.01
305.737	23.81
305.95	24.73
306.163	22.81
306.376	23.79
306.589	23.22
306.802	22.79
307.015	21.65
307.228	20.12
307.44	17.78
307.653	16.68
307.866	13.52
308.079	13.3
308.292	12.57
308.505	15.38
308.718	15.56
308.93	16.53
309.143	17.64
309.356	18.56
309.569	17.57
309.781	19.7
309.994	20.46
310.207	19.88
310.42	19.89
310.632	21.4
310.845	20.05
311.058	20.48
311.27	20.61
311.483	21.08
311.696	20.2
311.908	22.23
312.121	21.82
312.333	21.41
312.546	23.39
312.759	23.9
312.971	21.55
313.184	21.9
313.396	19.84
313.609	18.32
313.821	19.11
314.034	19.78
314.246	18.08
314.459	16.31
314.671	17.46
314.884	15.18
315.096	14.46
315.309	17.58
315.521	21
315.733	24.28
315.946	25.05
316.158	24.06
316.371	25.11
316.583	26.2
316.795	27.4
317.008	27.03
317.22	26.88
317.432	25.74
317.644	22.41
317.857	20.5
318.069	17.92
318.281	19.84
318.494	16.92
318.706	17.32
318.918	15.84
319.13	16.97
319.342	13.77
319.555	15.76
319.767	16.58
319.979	17.78
320.191	18.22
320.403	19.15
320.615	17.37
320.827	19.99
321.039	19.97
321.252	19.85
321.464	18.73
321.676	23.42
321.888	21.47
322.1	22.81
322.312	22.54
322.524	24.85
322.736	23.92
322.948	25.58
323.16	26.14
323.372	28.3
323.584	30.1
323.796	31.69
324.007	29.99
324.219	31.13
324.431	30.69
324.643	30.81
324.855	28.23
325.067	28.23
325.279	26.21
325.491	25.11
325.702	23.3
325.914	23.8
326.126	22.35
326.338	23.49
326.55	24.67
326.761	24.76
326.973	27.55
327.185	28.79
327.396	30.18
327.608	32.1
327.82	34.62
328.032	35.6
328.243	35.18
328.455	35.53
328.666	37.26
328.878	39.45
329.09	41.32
329.301	40.23
329.513	40.9
329.725	41.86
329.936	42.9
330.148	42.54
330.359	44.95
330.571	46.21
330.782	46.65
330.994	45.08
331.205	44.04
331.417	45.9
331.628	46.95
331.84	46.42
332.051	45.91
332.262	45.37
332.474	46.09
332.685	45.46
332.897	46.57
333.108	48.25
333.319	48.15
333.531	49.89
333.742	49.21
333.953	50.44
334.165	52.26
334.376	54.34
334.587	55
334.799	55.65
335.01	56.51
335.221	57.2
335.432	58.28
335.644	59.78
335.855	59.63
336.066	60.85
336.277	59.63
336.488	58.46
336.7	59.48
336.911	61.74
337.122	62.37
337.333	61.52
337.544	61.76
337.755	62.35
337.966	63.53
338.177	62.12
338.388	62.39
338.599	64.65
338.811	65.24
339.022	64.29
339.233	61.38
339.444	59.94
339.655	61.68
339.866	61.14
340.076	59.49
340.287	60.39
340.498	62.31
340.709	61.36
340.92	60.23
341.131	61.47
341.342	62.35
341.553	66.11
341.764	66.62
341.975	64.32
342.185	63.21
342.396	65.85
342.607	63.85
342.818	64.19
343.029	65.01
343.239	66.31
343.45	64.96
343.661	63.77
343.872	62.03
344.082	61.86
344.293	63.21
344.504	64.33
344.714	62.92
344.925	61.76
345.136	60.29
345.346	59.51
345.557	58.85
345.768	59.56
345.978	59.08
346.189	59.18
346.399	59.99
346.61	59.53
346.821	58.3
347.031	57.3
347.242	58.07
347.452	58.33
347.663	57.39
347.873	56.49
348.084	57.6
348.294	57.53
348.504	56.97
348.715	56.47
348.925	58.01
349.136	59.35
349.346	59.93
349.557	60.4
349.767	60.97
349.977	62.5
350.188	64.11
350.398	63.25
350.608	64.95
350.819	65.97
351.029	66.58
351.239	64.94
351.449	64.98
351.66	64.45
351.87	64.04
352.08	63.08
352.29	63.27
352.501	63.12
352.711	63.55
352.921	62.5
353.131	61.17
353.341	60.52
353.552	60.6
353.762	60.53
353.972	60.66
354.182	60.48
354.392	61.81
354.602	60.47
354.812	58.95
355.022	56.83
355.232	56.94
355.442	57.62
355.652	58.46
355.862	58.94
356.072	60.14
356.282	60.43
356.492	61.36
356.702	61.02
356.912	61.57
357.122	61.75
357.332	62.19
357.542	62.47
357.752	63.15
357.962	62
358.171	61.14
358.381	60.16
358.591	59.69
358.801	59.35
359.011	58.82
359.221	58.66
359.43	58.65
359.64	58.6
359.85	57.53
360.06	57.13
360.269	57.23
360.479	57.73
360.689	56.67
360.899	57.94
361.108	58.91
361.318	59.23
361.528	59.73
361.737	59.59
361.947	60.71
362.156	60.98
362.366	60.54
362.576	60.81
362.785	60.82
362.995	61.83
363.204	60.17
363.414	59.46
363.623	59.68
363.833	59.45
364.042	59.71
364.252	58.65
364.461	59.27
364.671	59.27
364.88	59.56
365.09	59.53
365.299	59.19
365.509	59.59
365.718	59.21
365.927	58.63
366.137	57.48
366.346	58.77
366.555	59.05
366.765	58.64
366.974	57.89
367.183	57
367.393	56.11
367.602	56.62
367.811	57.25
368.021	56.28
368.23	55.74
368.439	56.01
368.648	55.62
368.857	56.06
369.067	54.94
369.276	55.73
369.485	55.78
369.694	56.32
369.903	55.65
370.112	55.25
370.321	55.61
370.531	56.44
370.74	56.74
370.949	55.79
371.158	55.77
371.367	56.12
371.576	55.74
371.785	55.74
371.994	54.83
372.203	54.21
372.412	53.26
372.621	54.25
372.83	53.33
373.039	53.13
373.248	52.2
373.457	51.45
373.666	51.47
373.874	51.79
374.083	51.65
374.292	52.06
374.501	52.09
374.71	52.62
374.919	51.68
375.128	52.28
375.336	52.13
375.545	51.65
375.754	51.67
375.963	51.65
376.171	51.39
376.38	51.65
376.589	52.03
376.798	52.19
377.006	52.43
377.215	52.55
377.424	52.16
377.632	51.81
377.841	52.39
378.05	52.42
378.258	52.26
378.467	52.34
378.675	51.76
378.884	51.39
379.093	51.25
379.301	51
379.51	50.44
379.718	49.58
379.927	49.19
380.135	48.91
380.344	48.56
380.552	48.26
380.761	47.73
380.969	47.41
381.177	46.76
381.386	46.56
381.594	46.22
381.803	45.99
382.011	46.23
382.219	45.96
382.428	45.67
382.636	44.95
382.845	44.62
383.053	44.62
383.261	44.48
383.469	44.56
383.678	43.69
383.886	44.03
384.094	43.54
384.302	43.55
384.511	43.57
384.719	43.47
384.927	43.85
385.135	44
385.343	43.57
385.552	43.89
385.76	44.1
385.968	44.51
386.176	43.93
386.384	43.45
386.592	43.04
386.8	43.07
387.008	43.16
387.216	43.09
387.424	43.05
387.633	43.25
387.841	42.96
388.049	42.62
388.257	42.79
388.465	42.63
388.672	43.35
388.88	43.41
389.088	42.95
389.296	42.86
389.504	43.04
389.712	42.52
389.92	42.24
390.128	42.32
390.336	42.19
390.544	41.56
390.751	41.39
390.959	40.5
391.167	40.14
391.375	40.14
391.583	40
391.79	39.33
391.998	39.31
392.206	39.17
392.414	38.86
392.621	38.39
392.829	38.66
393.037	38.23
393.244	38.42
393.452	38.48
393.66	38.26
393.867	38.15
394.075	38.33
394.283	38.72
394.49	38.66
394.698	38.71
394.905	39.09
395.113	38.8
395.32	39.34
395.528	39.57
395.735	39.57
395.943	39.72
396.15	39.46
396.358	39.48
396.565	38.89
396.773	39.13
396.98	38.6
397.188	38.34
397.395	37.89
397.602	37.66
397.81	37.45
398.017	37.66
398.225	37.51
398.432	37.45
398.639	37.13
398.847	37.49
399.054	37.41
399.261	37.34
399.468	37.52
399.676	37.95
399.883	38
400.09	38.51
400.297	38.39
400.505	38.48
400.712	38.71
400.919	38.82
401.126	38.99
401.333	39
401.54	39.05
401.748	38.93
401.955	38.51
402.162	38.18
402.369	37.93
402.576	37.91
402.783	37.74
402.99	37.53
403.197	37.71
403.404	37.49
403.611	36.88
403.818	37.41
404.025	37.24
404.232	37.74
404.439	37.86
404.646	37.26
404.853	37.24
405.06	37.39
405.267	37.44
405.474	37.36
405.681	37.03
405.887	37.29
406.094	36.91
406.301	36.76
406.508	36.59
406.715	36.73
406.922	36.89
407.128	36.74
407.335	36.7
407.542	36.33
407.749	36.18
407.955	36.29
408.162	36.27
408.369	36.19
408.575	36.06
408.782	35.78
408.989	35.64
409.195	35.94
409.402	35.86
409.609	35.88
409.815	36.31
410.022	36.05
410.228	36.28
410.435	36.23
410.642	36.18
410.848	36.57
411.055	36.65
411.261	36.63
411.468	36.46
411.674	36.22
411.881	36.21
412.087	35.87
412.294	35.92
412.5	35.6
412.706	35.64
412.913	35.5
413.119	35.24
413.326	35.09
413.532	35.13
413.738	35.17
413.945	35.25
414.151	35.23
414.357	35.45
414.564	35.57
414.77	35.46
414.976	35.33
415.182	35.6
415.389	35.62
415.595	35.94
415.801	35.84
416.007	35.45
416.214	35.16
416.42	35.27
416.626	35.17
416.832	34.87
417.038	34.89
417.244	34.7
417.45	34.5
417.657	34.13
417.863	34.09
418.069	34.05
418.275	34.11
418.481	34.3
418.687	34.18
418.893	34.19
419.099	34.19
419.305	34.08
419.511	34.09
419.717	33.98
419.923	34.3
420.129	33.88
420.335	33.72
420.541	33.88
420.746	34.07
420.952	34.05
421.158	34.07
421.364	34.21
421.57	34.32
421.776	34.33
421.982	34.45
422.187	34.31
422.393	34.52
422.599	34.61
422.805	34.48
423.01	34.23
423.216	34.12
423.422	34.05
423.628	34.02
423.833	34.06
424.039	33.91
424.245	33.88
424.45	33.83
424.656	33.79
424.862	33.74
425.067	33.81
425.273	33.85
425.478	34.03
425.684	33.91
425.889	33.86
426.095	33.55
426.301	33.49
426.506	33.38
426.712	33.22
426.917	33.12
427.123	33.05
427.328	32.95
427.533	32.93
427.739	32.44
427.944	32.46
428.15	32.34
428.355	32.71
428.561	32.9
428.766	32.85
428.971	32.91
429.177	32.92
429.382	32.88
429.587	32.73
429.793	32.64
429.998	32.74
430.203	32.77
430.408	32.67
430.614	32.26
430.819	32.5
431.024	32.54
431.229	32.62
431.434	32.52
431.64	32.72
431.845	32.88
432.05	32.87
432.255	33.04
432.46	33
432.665	33.03
432.87	33.14
433.076	32.79
433.281	32.76
433.486	32.8
433.691	32.97
433.896	32.84
434.101	32.87
434.306	33.02
434.511	32.71
434.716	32.57
434.921	32.74
435.126	32.78
435.331	32.86
435.535	32.91
435.74	32.87
435.945	32.72
436.15	32.8
436.355	32.67
436.56	32.61
436.765	32.83
436.97	33.08
437.174	32.83
437.379	32.93
437.584	33.01
437.789	32.92
437.993	32.93
438.198	33.02
438.403	33.02
438.608	33.04
438.812	32.92
439.017	32.93
439.222	32.89
439.426	32.97
439.631	32.87
439.836	32.81
440.04	32.89
440.245	32.95
440.45	33.07
440.654	33.07
440.859	32.99
441.063	33.04
441.268	33.15
441.472	33.19
441.677	33.24
441.881	33.27
442.086	33.42
442.29	33.45
442.495	33.45
442.699	33.27
442.904	33.37
443.108	33.4
443.312	33.39
443.517	33.26
443.721	33.39
443.925	33.54
444.13	33.58
444.334	33.36
444.538	33.28
444.743	33.19
444.947	32.95
445.151	32.81
445.356	32.9
445.56	32.83
445.764	32.96
445.968	32.68
446.173	32.63
446.377	32.58
446.581	32.65
446.785	32.7
446.989	32.74
447.193	33.1
447.398	33.15
447.602	33
447.806	33.02
448.01	32.9
448.214	32.99
448.418	33.05
448.622	32.98
448.826	33.05
449.03	32.92
449.234	32.98
449.438	32.77
449.642	32.59
449.846	32.7
450.05	32.52
450.254	32.62
450.458	32.7
450.662	32.31
450.866	32.26
451.069	32.13
451.273	32.08
451.477	31.89
451.681	31.91
451.885	32.07
452.089	32.17
452.292	32.48
452.496	32.4
452.7	32.23
452.904	32.46
453.107	32.49
453.311	32.49
453.515	32.47
453.719	32.69
453.922	32.64
454.126	32.4
454.33	32.24
454.533	32.02
454.737	31.93
454.94	31.99
455.144	31.89
455.348	31.96
455.551	31.97
455.755	32.25
455.958	32.22
456.162	32.43
456.365	32.61
456.569	32.77
456.772	32.89
456.976	32.95
457.179	32.97
457.383	33
457.586	33.03
457.79	33.2
457.993	33.06
458.196	33.05
458.4	32.97
458.603	33.21
458.807	33.07
459.01	33.08
459.213	33.08
459.417	33.11
459.62	33.05
459.823	33.16
460.026	33.01
460.23	33.16
460.433	33.02
460.636	33.01
460.839	32.73
461.042	32.73
461.246	32.77
461.449	32.83
461.652	32.84
461.855	32.98
462.058	32.85
462.261	32.99
462.464	32.77
462.668	32.75
462.871	32.69
463.074	32.84
463.277	33.13
463.48	33.1
463.683	33.09
463.886	33.16
464.089	33.06
464.292	33.26
464.495	33.17
464.698	33.43
464.901	33.52
465.104	33.5
465.306	33.58
465.509	33.34
465.712	33.51
465.915	33.38
466.118	33.37
466.321	33.28
466.524	33.06
466.726	33.23
466.929	33.35
467.132	33.47
467.335	33.66
467.538	33.59
467.74	33.68
467.943	33.43
468.146	33.68
468.348	33.77
468.551	33.94
468.754	34.09
468.956	34.02
469.159	33.67
469.362	33.66
469.564	33.64
469.767	33.55
469.969	33.5
470.172	33.74
470.375	33.69
470.577	33.7
470.78	33.75
470.982	33.78
471.185	33.74
471.387	33.8
471.59	34.02
471.792	34.11
471.995	34.35
472.197	34.52
472.399	34.59
472.602	34.49
472.804	34.47
473.007	34.2
473.209	34.19
473.411	34.37
473.614	34.36
473.816	34.11
474.018	33.99
474.22	33.97
474.423	33.84
474.625	33.66
474.827	33.54
475.03	33.54
475.232	33.83
475.434	33.94
475.636	33.95
475.838	34.06
476.04	34.13
476.243	33.86
476.445	33.83
476.647	34.04
476.849	33.99
477.051	33.98
477.253	33.91
477.455	33.91
477.657	33.77
477.859	33.71
478.061	33.63
478.263	33.49
478.465	33.7
478.667	33.62
478.869	33.3
479.071	33.26
479.273	33.4
479.475	33.55
479.677	33.42
479.879	33.38
480.081	33.27
480.283	33.53
480.485	33.61
480.686	33.73
480.888	33.87
481.09	33.91
481.292	33.93
481.494	33.74
481.695	33.71
481.897	33.66
482.099	33.51
482.301	33.45
482.502	33.43
482.704	33.45
482.906	33.43
483.107	33.36
483.309	33.47
483.511	33.47
483.712	33.54
483.914	33.47
484.115	33.52
484.317	33.65
484.519	33.7
484.72	33.69
484.922	33.64
485.123	33.65
485.325	33.67
485.526	33.52
485.728	33.48
485.929	33.37
486.131	33.43
486.332	33.37
486.534	33.3
486.735	33.21
486.936	33.21
487.138	33.29
487.339	33.26
487.541	33.29
487.742	33.39
487.943	33.49
488.144	33.6
488.346	33.56
488.547	33.59
488.748	33.56
488.95	33.73
489.151	33.73
489.352	33.55
489.553	33.56
489.755	33.56
489.956	33.57
490.157	33.54
490.358	33.54
490.559	33.62
490.76	33.77
490.961	33.7
491.163	33.61
491.364	33.54
491.565	33.71
491.766	33.75
491.967	33.71
492.168	33.73
492.369	33.78
492.57	33.81
492.771	33.85
492.972	33.62
493.173	33.69
493.374	33.67
493.575	33.73
493.776	33.77
493.976	33.73
494.177	33.86
494.378	33.98
494.579	33.85
494.78	33.91
494.981	33.68
495.182	33.98
495.382	34.02
495.583	34.2
495.784	34.17
495.985	34.29
496.185	34.19
496.386	34.18
496.587	34.03
496.788	34.07
496.988	34.06
497.189	34.28
497.39	34.17
497.59	34.35
497.791	34.24
497.992	34.17
498.192	34.11
498.393	34.09
498.593	34.01
498.794	34.12
498.994	34.14
499.195	34.03
499.395	33.81
499.596	34.01
499.796	34
499.997	34.08
500.197	34.33
500.398	34.08
500.598	34.23
500.799	34.37
500.999	34.36
501.199	34.34
501.4	34.58
501.6	34.83
501.801	34.78
502.001	34.64
502.201	34.67
502.402	34.52
502.602	34.85
502.802	34.93
503.002	35.01
503.203	35.11
503.403	35.23
503.603	35.06
503.803	35.28
504.003	35.33
504.204	35.31
504.404	35.28
504.604	35.34
504.804	35.32
505.004	35.27
505.204	35.2
505.404	35.21
505.604	35.25
505.804	35.38
506.005	35.11
506.205	35.19
506.405	35.45
506.605	35.66
506.805	35.66
507.005	35.79
507.204	35.84
507.404	35.89
507.604	35.87
507.804	36.09
508.004	35.88
508.204	36.14
508.404	36.2
508.604	36.04
508.804	36.02
509.003	36.22
509.203	36.22
509.403	36.37
509.603	36.45
509.803	36.5
510.002	36.36
510.202	36.81
510.402	36.74
510.602	36.65
510.801	36.84
511.001	37.01
511.201	36.93
511.4	37.15
511.6	37.05
511.8	37
511.999	37.07
512.199	37.2
512.398	37.1
512.598	37.01
512.797	37.16
512.997	37.1
513.197	37.1
513.396	37.17
513.596	37.03
513.795	37.1
513.994	37.13
514.194	37.02
514.393	36.95
514.593	37.01
514.792	37.16
514.992	37.16
515.191	37.17
515.39	37.05
515.59	37.17
515.789	37.16
515.988	37.27
516.188	37.49
516.387	37.69
516.586	37.82
516.786	37.79
516.985	37.73
517.184	37.9
517.383	37.88
517.582	38.01
517.782	37.89
517.981	37.93
518.18	38.05
518.379	37.94
518.578	38
518.777	37.92
518.976	38.01
519.176	38.08
519.375	38.01
519.574	38.08
519.773	38.08
519.972	38.27
520.171	38.3
520.37	38.27
520.569	38.27
520.768	38.31
520.967	38.31
521.166	38.25
521.365	38.36
521.564	38.34
521.762	38.33
521.961	38.33
522.16	38.32
522.359	38.29
522.558	38.24
522.757	38.44
522.956	38.3
523.154	38.46
523.353	38.55
523.552	38.65
523.751	38.62
523.949	38.69
524.148	38.81
524.347	38.72
524.546	38.79
524.744	38.8
524.943	38.73
525.142	38.83
525.34	38.82
525.539	38.8
525.737	38.68
525.936	38.84
526.135	38.81
526.333	38.65
526.532	38.68
526.73	38.79
526.929	38.88
527.127	38.89
527.326	38.87
527.524	38.83
527.723	38.84
527.921	38.9
528.12	38.93
528.318	39.14
528.516	39.19
528.715	39.24
528.913	39.26
529.112	39.26
529.31	39.33
529.508	39.38
529.707	39.45
529.905	39.48
530.103	39.46
530.301	39.48
530.5	39.31
530.698	39.35
530.896	39.36
531.094	39.22
531.293	39.17
531.491	39.15
531.689	39.18
531.887	39.15
532.085	39.08
532.283	39.14
532.481	39.02
532.68	39.16
532.878	39.11
533.076	39.16
533.274	39.29
533.472	39.47
533.67	39.47
533.868	39.49
534.066	39.62
534.264	39.77
534.462	39.77
534.66	39.98
534.858	40.07
535.056	40.18
535.253	40.13
535.451	40.2
535.649	40.04
535.847	40.07
536.045	40
536.243	39.92
536.441	39.9
536.638	39.99
536.836	39.78
537.034	39.62
537.232	39.59
537.43	39.67
537.627	39.64
537.825	39.69
538.023	39.78
538.22	39.82
538.418	39.89
538.616	39.89
538.813	39.75
539.011	39.85
539.209	39.86
539.406	39.63
539.604	39.53
539.801	39.51
539.999	39.54
540.196	39.43
540.394	39.41
540.591	39.41
540.789	39.4
540.986	39.56
541.184	39.66
541.381	39.83
541.579	40.09
541.776	40.16
541.974	40.32
542.171	40.42
542.368	40.49
542.566	40.59
542.763	40.73
542.96	40.81
543.158	40.74
543.355	40.74
543.552	40.56
543.75	40.41
543.947	40.54
544.144	40.39
544.341	40.3
544.539	40.14
544.736	40.05
544.933	39.89
545.13	39.77
545.327	39.95
545.524	39.95
545.722	39.92
545.919	40.11
546.116	40
546.313	40.05
546.51	39.92
546.707	39.99
546.904	40.06
547.101	40.15
547.298	40.29
547.495	40.23
547.692	40.24
547.889	40.52
548.086	40.44
548.283	40.43
548.48	40.35
548.677	40.58
548.874	40.8
549.07	40.79
549.267	40.78
549.464	40.87
549.661	40.87
549.858	40.88
550.055	40.46
550.251	40.52
550.448	40.33
550.645	40.36
550.842	40.3
551.038	40.28
551.235	40.2
551.432	40.08
551.628	39.84
551.825	39.93
552.022	39.82
552.218	39.96
552.415	39.95
552.612	40.22
552.808	40.31
553.005	40.35
553.201	40.25
553.398	40.23
553.594	40.28
553.791	40.68
553.987	40.65
554.184	40.81
554.38	40.88
554.577	40.74
554.773	40.71
554.97	40.58
555.166	40.63
555.362	40.57
555.559	40.76
555.755	40.73
555.952	40.33
556.148	40.26
556.344	40.32
556.541	40.46
556.737	40.37
556.933	40.3
557.129	40.39
557.326	40.19
557.522	40.42
557.718	40.49
557.914	40.45
558.11	40.7
558.307	40.94
558.503	40.85
558.699	40.72
558.895	40.92
559.091	41.08
559.287	41.12
559.483	41.54
559.679	41.45
559.876	41.49
560.072	41.73
560.268	41.71
560.464	41.45
560.66	41.54
560.856	41.58
561.052	41.61
561.247	41.45
561.443	41.37
561.639	41.28
561.835	41.36
562.031	41.32
562.227	41.36
562.423	41.26
562.619	41.4
562.815	41.41
563.01	41.43
563.206	41.58
563.402	41.75
563.598	41.88
563.793	41.63
563.989	41.77
564.185	41.86
564.381	41.82
564.576	41.74
564.772	41.65
564.968	41.72
565.163	42.04
565.359	42.05
565.555	42.02
565.75	42.09
565.946	42.43
566.141	42.32
566.337	42.22
566.532	42.16
566.728	42.38
566.923	42.55
567.119	42.56
567.314	42.54
567.51	42.56
567.705	42.63
567.901	42.5
568.096	42.28
568.292	42.22
568.487	42.45
568.682	42.49
568.878	42.47
569.073	42.35
569.268	42.36
569.464	42.15
569.659	42.15
569.854	42.28
570.05	42.4
570.245	42.48
570.44	42.56
570.635	42.5
570.831	42.47
571.026	42.39
571.221	42.67
571.416	42.54
571.611	42.49
571.806	42.67
572.002	42.69
572.197	42.81
572.392	42.83
572.587	42.99
572.782	42.9
572.977	43.03
573.172	43.41
573.367	43.18
573.562	43.53
573.757	43.61
573.952	43.62
574.147	43.62
574.342	43.56
574.537	43.76
574.732	43.72
574.927	43.89
575.121	43.89
575.316	43.48
575.511	43.66
575.706	43.48
575.901	43.49
576.096	43.29
576.29	43.28
576.485	43.2
576.68	42.88
576.875	42.95
577.069	43.06
577.264	42.83
577.459	43.11
577.654	43.04
577.848	43.02
578.043	43.17
578.238	43.21
578.432	43.23
578.627	43.35
578.821	43.78
579.016	43.81
579.21	43.29
579.405	43.62
579.6	43.48
579.794	43.51
579.989	43.59
580.183	43.68
580.378	43.84
580.572	43.54
580.766	43.4
580.961	43.22
581.155	42.85
581.35	43.45
581.544	43.32
581.738	43.21
581.933	43.23
582.127	43.28
582.321	43.22
582.516	43.09
582.71	43.37
582.904	43.67
583.099	43.57
583.293	43.87
583.487	43.58
583.681	43.72
583.875	43.83
584.07	43.92
584.264	43.8
584.458	43.77
584.652	43.78
584.846	43.67
585.04	43.74
585.234	43.66
585.428	43.66
585.623	43.67
585.817	43.67
586.011	43.55
586.205	43.39
586.399	43.51
586.593	43.3
586.787	43.32
586.981	43.35
587.174	43.06
587.368	43.15
587.562	43.23
587.756	43.35
587.95	43.16
588.144	43.29
588.338	43.78
588.532	43.55
588.725	43.62
588.919	43.66
589.113	43.7
589.307	43.95
589.501	43.99
589.694	43.94
589.888	43.69
590.082	44.09
590.275	44.2
590.469	44.04
590.663	44.24
590.856	44.55
591.05	44.55
591.244	44.49
591.437	44.3
591.631	44.3
591.824	44.43
592.018	44.75
592.212	44.67
592.405	44.51
592.599	44.39
592.792	44.56
592.986	44.43
593.179	44.34
593.372	44.54
593.566	44.84
593.759	45.03
593.953	44.91
594.146	44.79
594.339	44.75
594.533	44.99
594.726	45.03
594.92	44.71
595.113	44.78
595.306	45.02
595.499	45.03
595.693	44.9
595.886	44.94
596.079	45.21
596.272	45.15
596.466	45.25
596.659	44.91
596.852	44.92
597.045	44.97
597.238	44.88
597.431	44.88
597.624	44.76
597.818	44.74
598.011	44.6
598.204	44.29
598.397	44.42
598.59	44.28
598.783	44.69
598.976	44.76
599.169	44.86
599.362	45.02
599.555	44.94
599.748	44.7
599.941	44.7
600.134	44.85
600.326	44.89
600.519	44.88
600.712	44.82
600.905	44.65
601.098	44.19
601.291	44.33
601.483	44.32
601.676	44.24
601.869	44.52
602.062	44.79
602.255	44.81
602.447	44.69
602.64	44.62
602.833	45.09
603.025	45.06
603.218	45.63
603.411	45.47
603.603	45.33
603.796	45.3
603.989	45.3
604.181	45.4
604.374	45.4
604.566	45.42
604.759	45.49
604.951	45.18
605.144	45.36
605.336	45.29
605.529	45.11
605.721	45.22
605.914	45.23
606.106	45.14
606.299	44.88
606.491	44.71
606.683	44.6
606.876	44.43
607.068	44.17
607.26	43.67
607.453	43.73
607.645	44.03
607.837	43.85
608.03	44.04
608.222	44.21
608.414	44.41
608.606	44.58
608.799	44.74
608.991	44.75
609.183	44.9
609.375	45.34
609.567	45.24
609.759	45.25
609.952	45.71
610.144	45.78
610.336	46.04
610.528	45.82
610.72	45.75
610.912	45.79
611.104	45.91
611.296	46.14
611.488	46.14
611.68	46.28
611.872	46.11
612.064	45.87
612.256	45.95
612.448	45.82
612.64	46.08
612.832	46.09
613.023	46.01
613.215	45.89
613.407	45.62
613.599	45.37
613.791	45.22
613.983	45.48
614.174	45.54
614.366	45.4
614.558	45.24
614.75	45.02
614.941	45.46
615.133	45.7
615.325	45.7
615.516	46.15
615.708	46.34
615.9	46.41
616.091	46.61
616.283	46.58
616.475	46.44
616.666	46.69
616.858	46.94
617.049	46.65
617.241	46.6
617.432	47.03
617.624	46.99
617.815	46.53
618.007	46.43
618.198	46.15
618.39	45.89
618.581	46.16
618.773	45.91
618.964	45.48
619.155	45.57
619.347	45.56
619.538	45.24
619.729	44.99
619.921	45.1
620.112	45.15
620.303	45.35
620.494	45.51
620.686	45.4
620.877	45.41
621.068	45.43
621.259	45.56
621.451	45.52
621.642	45.56
621.833	45.57
622.024	46.02
622.215	45.69
622.406	45.44
622.597	45.96
622.788	45.91
622.98	46.04
623.171	45.73
623.362	45.19
623.553	44.79
623.744	44.76
623.935	44.86
624.126	44.81
624.317	45.03
624.508	45.14
624.698	44.65
624.889	44.73
625.08	44.87
625.271	45.16
625.462	45.58
625.653	46.2
625.844	46.37
626.034	46.69
626.225	46.52
626.416	46.72
626.607	46.77
626.798	46.58
626.988	46.45
627.179	46.4
627.37	46.59
627.56	46.37
627.751	46.09
627.942	46.02
628.132	45.8
628.323	45.44
628.514	45.29
628.704	45.24
628.895	45.13
629.085	45.35
629.276	45.16
629.466	45.06
629.657	44.94
629.847	44.98
630.038	44.88
630.228	44.8
630.419	45.01
630.609	45
630.8	44.91
630.99	45.31
631.181	45.24
631.371	45.34
631.561	45.11
631.752	45.11
631.942	45.18
632.132	45.14
632.323	45.4
632.513	45.41
632.703	45.36
632.893	45.3
633.084	45.25
633.274	45.31
633.464	45.07
633.654	45.58
633.844	45.89
634.034	45.89
634.225	46
634.415	45.6
634.605	45.68
634.795	45.94
634.985	46.08
635.175	45.99
635.365	46.13
635.555	46.17
635.745	46.03
635.935	45.96
636.125	46.23
636.315	46.15
636.505	46.33
636.695	46.72
636.885	46.61
637.075	46.98
637.265	47.53
637.455	46.79
637.644	46.95
637.834	46.83
638.024	46.8
638.214	46.65
638.404	46.83
638.593	46.7
638.783	46.34
638.973	45.9
639.163	45.43
639.352	44.76
639.542	45.46
639.732	45.14
639.921	45.02
640.111	45.27
640.301	45.03
640.49	44.9
640.68	44.73
640.87	45.15
641.059	45.55
641.249	45.58
641.438	45.8
641.628	45.01
641.817	45.44
642.007	45.68
642.196	45.28
642.386	45.66
642.575	45.89
642.764	45.87
642.954	45.06
643.143	44.55
643.333	44.83
643.522	44.83
643.711	45.41
643.901	45.64
644.09	45.38
644.279	45.23
644.469	45.2
644.658	44.98
644.847	45.05
645.036	45.72
645.226	45.96
645.415	45.76
645.604	46.06
645.793	46.15
645.982	45.65
646.171	45.7
646.361	46.16
646.55	46
646.739	46.17
646.928	46.5
647.117	46.17
647.306	46.13
647.495	46.24
647.684	46.31
647.873	46.03
648.062	46.4
648.251	46.73
648.44	46.64
648.629	46.21
648.818	46.08
649.007	45.95
649.196	45.77
649.384	45.61
649.573	45.84
649.762	45.61
649.951	45.72
650.14	45.72
650.328	45.66
650.517	45.68
650.706	45.95
650.895	46.36
651.083	45.85
651.272	46.28
651.461	46.5
651.65	46.15
651.838	45.96
652.027	46.14
652.216	45.78
652.404	45.99
652.593	46.1
652.781	45.99
652.97	45.36
653.158	45.41
653.347	45.58
653.535	45.7
653.724	45.39
653.912	45.79
654.101	45.83
654.289	46.32
654.478	46.05
654.666	45.81
654.855	46.1
655.043	46.45
655.231	47.11
655.42	47.06
655.608	47.44
655.796	48.12
655.985	47.56
656.173	47.38
656.361	46.86
656.55	47.14
656.738	46.82
656.926	46.45
657.114	46.22
657.302	46.3
657.491	46.17
657.679	45.85
657.867	45.47
658.055	45.34
658.243	45.5
658.431	45.37
658.619	45.22
658.807	45.03
658.996	44.89
659.184	45.06
659.372	44.79
659.56	44.79
659.748	44.72
659.936	44.86
660.124	44.99
660.311	44.77
660.499	45.1
660.687	45.16
660.875	45.54
661.063	46.2
661.251	46.35
661.439	46.33
661.627	46.39
661.814	46.25
662.002	46.13
662.19	46.31
662.378	46.55
662.565	46.62
662.753	46.2
662.941	45.78
663.129	45.37
663.316	45.33
663.504	45.32
663.692	45.09
663.879	45.6
664.067	45.36
664.254	45.69
664.442	45.53
664.63	45.35
664.817	44.99
665.005	45.43
665.192	44.92
665.38	44.68
665.567	44.76
665.755	44.66
665.942	44.26
666.13	44.52
666.317	44.34
666.504	44.63
666.692	44.78
666.879	45.26
667.067	45.26
667.254	46.04
667.441	45.94
667.629	46.15
667.816	46.24
668.003	45.82
668.19	45.56
668.378	45.29
668.565	45.07
668.752	44.5
668.939	44.53
669.127	44.3
669.314	44.08
669.501	44.15
669.688	43.9
669.875	44.25
670.062	44.56
670.249	44.59
670.436	44.52
670.623	44.28
670.81	44.97
670.997	44.58
671.184	45.14
671.371	44.56
671.558	45.13
671.745	45.63
671.932	45.19
672.119	45.58
672.306	45.6
672.493	45.75
672.68	45.74
672.867	45.66
673.054	45.91
673.24	45.53
673.427	46.18
673.614	45.77
673.801	45.25
673.988	45.71
674.174	45.14
674.361	44.99
674.548	45.28
674.734	45.38
674.921	45.49
675.108	45.66
675.294	45.34
675.481	45.53
675.668	45.1
675.854	45.16
676.041	44.96
676.227	45.54
676.414	45.66
676.601	45.37
676.787	45.39
676.974	45.16
677.16	45.73
677.347	46.09
677.533	45.62
677.719	45.78
677.906	45.7
678.092	45.66
678.279	45.61
678.465	45.58
678.651	45.98
678.838	46.3
679.024	45.77
679.21	45.13
679.397	44.69
679.583	44.94
679.769	44.97
679.955	45.45
680.142	45.25
680.328	45.05
680.514	45.04
680.7	44.91
680.886	44.52
681.073	45.12
681.259	45.17
681.445	45.46
681.631	45.35
681.817	45.12
682.003	44.76
682.189	44.73
682.375	44.46
682.561	44.72
682.747	44.52
682.933	44.83
683.119	44.83
683.305	45.07
683.491	44.72
683.677	44.79
683.863	45.19
684.049	45.18
684.235	45.3
684.42	45.78
684.606	45.41
684.792	44.89
684.978	44.96
685.164	44.75
685.349	44.63
685.535	44.98
685.721	44.84
685.907	44.96
686.092	44.62
686.278	44.53
686.464	44.34
686.649	45.13
686.835	45.73
687.021	45.49
687.206	45.89
687.392	45.28
687.577	45.22
687.763	45.24
687.948	45.06
688.134	45.02
688.319	45.24
688.505	45.08
688.69	44.59
688.876	44.61
689.061	44.65
689.247	44.18
689.432	44.94
689.618	45.22
689.803	45.48
689.988	45.47
690.174	45.4
690.359	45.15
690.544	45.87
690.73	45.88
690.915	45.69
691.1	45.44
691.285	45.44
691.471	45.23
691.656	45.56
691.841	45.6
692.026	45.61
692.211	46.09
692.396	46.66
692.582	45.84
692.767	46.02
692.952	45.98
693.137	46.92
693.322	46.73
693.507	46.98
693.692	47.07
693.877	47.69
694.062	47.53
694.247	47.43
694.432	46.77
694.617	47.51
694.802	46.9
694.987	47.11
695.172	46.29
695.357	46.73
695.541	47
695.726	46.82
695.911	46.42
696.096	46.4
696.281	46.33
696.466	46.9
696.65	46.43
696.835	46.9
697.02	46.88
697.204	46.96
697.389	46.93
697.574	46.7
697.759	46.74
697.943	46.48
698.128	46.63
698.312	46.5
698.497	46.3
698.682	46.52
698.866	46.27
699.051	46.07
699.235	45.94
699.42	46.37
699.604	46.24
699.789	46.08
699.973	46.43
700.158	46.56
700.342	47.23
700.527	46.99
700.711	47.04
700.895	47.31
701.08	47.22
701.264	46.79
701.448	45.64
701.633	45.68
701.817	45.75
702.001	45.72
702.186	45.42
702.37	44.77
702.554	45.43
702.738	45.37
702.923	45.24
703.107	45.08
703.291	45.55
703.475	46.28
703.659	46.41
703.843	46.21
704.027	45.69
704.212	45.72
704.396	44.92
704.58	44.18
704.764	43.92
704.948	45.03
705.132	45.24
705.316	45.18
705.5	45.1
705.684	44.95
705.868	44.52
706.052	44.45
706.235	44.9
706.419	45.57
706.603	45.66
706.787	45.6
706.971	44.82
707.155	45.37
707.339	46.28
707.522	46.95
707.706	47.13
707.89	47.49
708.074	47.3
708.257	47.24
708.441	46.73
708.625	46.59
708.808	46.19
708.992	46.08
709.176	45.39
709.359	44.81
709.543	43.86
709.727	44.03
709.91	43.28
710.094	43.19
710.277	42.69
710.461	43.01
710.644	43.44
710.828	44.18
711.011	43.86
711.195	44.19
711.378	44.15
711.562	44.32
711.745	43.28
711.928	44.59
712.112	45.15
712.295	45.3
712.478	45.69
712.662	45.98
712.845	44.82
713.028	44.74
713.212	44.81
713.395	45.72
713.578	45.4
713.761	45.49
713.945	44.05
714.128	43.84
714.311	43.83
714.494	43.68
714.677	42.87
714.86	43.25
715.043	43.51
715.227	43.13
715.41	41.96
715.593	42.75
715.776	43.07
715.959	43.79
716.142	43.39
716.325	43.95
716.508	44.05
716.691	44.47
716.874	45.06
717.057	44.74
717.239	45.26
717.422	45.14
717.605	44.36
717.788	43.92
717.971	44.27
718.154	45.5
718.337	45.39
718.519	44.64
718.702	43.84
718.885	42.52
719.068	44.32
719.25	44.02
719.433	44.67
719.616	44.96
719.798	45.2
719.981	44.87
720.164	43.28
720.346	43
720.529	44.94
720.712	45.46
720.894	47.29
721.077	45.76
721.259	46.54
721.442	47.81
721.624	47.56
721.807	48.49
721.989	46.85
722.172	47.16
722.354	47.39
722.537	46.54
722.719	47
722.901	46.62
723.084	46.55
723.266	45.61
723.448	43.91
723.631	43.25
723.813	42.06
723.995	43.34
724.178	43.68
724.36	44.71
724.542	44.18
724.724	43.29
724.907	43.46
725.089	43.44
725.271	43.23
725.453	43.1
725.635	44.64
725.817	46.04
725.999	46.6
726.181	46.91
726.364	45.45
726.546	45.95
726.728	46.79
726.91	46.15
727.092	46.02
727.274	45.86
727.456	45.81
727.638	44.99
727.819	45.29
728.001	45.22
728.183	45.82
728.365	45.32
728.547	44.1
728.729	44.3
728.911	45.5
729.093	45.38
729.274	45.49
729.456	46.26
729.638	46.81
729.82	46.14
730.001	47.01
730.183	45.87
730.365	45.48
730.546	46.17
730.728	45.08
730.91	44.61
731.091	44.63
731.273	45.45
731.455	44.3
731.636	44.07
731.818	44.22
731.999	43.14
732.181	44.12
732.362	44.86
732.544	45.31
732.725	45.87
732.907	45.67
733.088	46.23
733.27	46.64
733.451	47.7
733.633	47.78
733.814	47.63
733.995	47
734.177	45.97
734.358	45.82
734.539	45
734.721	45.13
734.902	44.29
735.083	44.09
735.264	43.2
735.446	42.14
735.627	41.02
735.808	41.01
735.989	41.69
736.17	41.46
736.351	41.48
736.533	41.81
736.714	41.62
736.895	41.53
737.076	41.59
737.257	42.08
737.438	42.77
737.619	44.48
737.8	44.42
737.981	44.52
738.162	44.6
738.343	44.52
738.524	45.62
738.705	45.75
738.886	46.48
739.067	45.29
739.247	45.22
739.428	45.75
739.609	45.28
739.79	45
739.971	44.88
740.151	44.57
740.332	43.41
740.513	42.32
740.694	42.47
740.874	42.67
741.055	43.19
741.236	43.47
741.417	42.37
741.597	41.82
741.778	41.57
741.958	43.34
742.139	43.88
742.32	44.97
742.5	45.19
742.681	44
742.861	44.19
743.042	44.91
743.222	42.17
743.403	43.05
743.583	43.51
743.764	43.79
743.944	40.99
744.124	39.73
744.305	41.23
744.485	41.17
744.666	42.12
744.846	40.93
745.026	40.68
745.207	42.86
745.387	41.71
745.567	41.04
745.747	40.68
745.928	42.77
746.108	44.11
746.288	42.43
746.468	42.74
746.648	41.98
746.829	41.84
747.009	43.03
747.189	42.98
747.369	44.28
747.549	44.29
747.729	43.37
747.909	43.8
748.089	43.44
748.269	44.33
748.449	43.06
748.629	43.23
748.809	43.45
748.989	42.27
749.169	42.05
749.349	42.23
749.529	41.74
749.709	43.91
749.889	42.95
750.068	43.55
750.248	43.04
750.428	44.12
750.608	45.1
750.788	45.31
750.967	44.29
751.147	44.13
751.327	44.42
751.507	44.76
751.686	43.31
751.866	43.16
752.046	43.42
752.225	42.84
752.405	43.05
752.585	42.9
752.764	43.26
752.944	44.18
753.123	45.53
753.303	43.59
753.482	44.14
753.662	44.33
753.841	44.42
754.021	43.73
754.2	45.91
754.38	44.88
754.559	44.23
754.739	44.94
754.918	45.03
755.097	44.18
755.277	45.09
755.456	44.05
755.635	44.39
755.815	45.56
755.994	45.29
756.173	43.18
756.352	42.52
756.532	43.71
756.711	42.77
756.89	43.69
757.069	44.02
757.248	42.82
757.427	44.48
757.607	45.28
757.786	44.01
757.965	43.98
758.144	44.51
758.323	46.41
758.502	45.44
758.681	45.09
758.86	44.93
759.039	43.88
759.218	44.82
759.397	44.07
759.576	42.22
759.755	40.89
759.934	42
760.113	42.26
760.291	40.23
760.47	41.17
760.649	41.45
760.828	40.72
761.007	41.09
761.186	40.39
761.364	39.39
761.543	41.21
761.722	43.1
761.901	43.5
762.079	43.71
762.258	44.57
762.437	44.06
762.615	44.48
762.794	45.5
762.972	45.95
763.151	46.43
763.33	46.99
763.508	46.38
763.687	45.52
763.865	45.25
764.044	45.18
764.222	45.55
764.401	45.28
764.579	45.06
764.758	43.69
764.936	42.92
765.114	43.11
765.293	42.91
765.471	43.12
765.65	43.36
765.828	42.61
766.006	42.36
766.184	42.73
766.363	42.19
766.541	41.28
766.719	42.22
766.898	42.15
767.076	42.42
767.254	41.67
767.432	40.94
767.61	40
767.788	40.27
767.967	41.15
768.145	41.18
768.323	42.33
768.501	42.87
768.679	43.49
768.857	44.31
769.035	43.16
769.213	43.62
769.391	43.26
769.569	45.4
769.747	46.09
769.925	44.44
770.103	44.54
770.281	43.86
770.459	43.62
770.636	40.4
770.814	39.34
770.992	40.44
771.17	41.68
771.348	41.76
771.525	40.65
771.703	39.26
771.881	40.68
772.059	40.36
772.236	39.76
772.414	41.41
772.592	46.66
772.769	47.53
772.947	46.76
773.125	46.44
773.302	46.75
773.48	44.76
773.657	43.56
773.835	43
774.013	42.86
774.19	44.81
774.368	44.11
774.545	41.25
774.723	41.35
774.9	40.61
775.077	40.62
775.255	40.58
775.432	42.5
775.61	42.18
775.787	42.68
775.964	41.58
776.142	40.27
776.319	37.7
776.496	36.49
776.674	38.32
776.851	39.06
777.028	37.87
777.205	40.7
777.382	39.83
777.56	41.11
777.737	40.65
777.914	42.05
778.091	41.91
778.268	43.37
778.445	44.27
778.622	41.31
778.8	39.91
778.977	39.36
779.154	37.31
779.331	39
779.508	37.88
779.685	38.58
779.862	39.68
780.038	39.62
780.215	41.8
780.392	42.26
780.569	44.55
780.746	47.29
780.923	48.93
781.1	49.27
781.277	50.09
781.453	52.91
781.63	51.45
781.807	48.05
781.984	49.83
782.16	47.62
782.337	42.95
782.514	41.85
782.691	38.29
782.867	41.11
783.044	41.12
783.221	39.96
783.397	37.18
783.574	36.32
783.75	41.87
783.927	43.54
784.103	43.89
784.28	46.09
784.456	47.27
784.633	47.68
784.809	46.34
784.986	45.87
785.162	44.6
785.339	45.88
785.515	46.72
785.692	42.04
785.868	38.53
786.044	38.83
786.221	38.88
786.397	38.32
786.573	41.97
786.749	43.12
786.926	41.78
787.102	41.86
787.278	42.4
787.454	41.44
787.631	42.79
787.807	42.98
787.983	44.88
788.159	46.92
788.335	46.12
788.511	42.23
788.687	40.14
788.863	40.41
789.039	41.06
789.216	40.88
789.392	43.33
789.568	45.04
789.744	42.62
789.919	42.1
790.095	42.72
790.271	41.42
790.447	44.57
790.623	43.18
790.799	42.7
790.975	42.5
791.151	42.14
791.327	41.75
791.502	39.58
791.678	42.64
791.854	43.3
792.03	39.64
792.205	39.12
792.381	39.67
792.557	39.26
792.733	38.37
792.908	36.69
793.084	36.61
793.259	32.8
793.435	32.5
793.611	31.45
793.786	27.76
793.962	28.53
794.137	28.8
794.313	27.76
794.488	27.81
794.664	31.82
794.839	31.77
795.015	31.29
795.19	32.95
795.366	34.44
795.541	34.57
795.716	35.21
795.892	37.33
796.067	38.22
796.242	38.28
796.418	37.94
796.593	35.71
796.768	36.19
796.944	38.82
797.119	40.85
797.294	40.38
797.469	40.12
797.644	38.21
797.82	36.69
797.995	34.92
798.17	33.4
798.345	35.97
798.52	34.97
798.695	34.31
798.87	32.22
799.045	27.46
799.22	24.51
799.395	25.9
799.57	27.97
799.745	31.64
799.92	32
800.095	31.82
800.27	31.23
800.445	32.73
800.62	34.04
800.795	31.13
800.97	36.38
801.145	37.18
801.319	35.49
801.494	36.92
801.669	29.21
801.844	32.45
802.018	31.36
802.193	28.61
802.368	31.33
802.543	33.72
802.717	36.47
802.892	30.96
803.067	34.96
803.241	31.33
803.416	30.33
803.59	33.53
803.765	32.22
803.94	34.96
804.114	34.95
804.289	32.51
804.463	32.75
804.638	33.72
804.812	34.49
804.986	30.18
805.161	39.17
805.335	40.34
805.51	45.08
805.684	48.3
805.858	47.09
806.033	48.8
806.207	47.67
806.381	47.65
806.556	47.67
806.73	49.27
806.904	49.07
807.078	43.7
807.253	41.94
807.427	37.09
807.601	31.92
807.775	31.34
807.949	32.32
808.123	32
808.298	28.17
808.472	28.56
808.646	26.13
808.82	31.78
808.994	32.93
809.168	31.65
809.342	33.74
809.516	32.8
809.69	34.23
809.864	30.39
810.038	33.37
810.212	38.78
810.385	38.67
810.559	42.04
810.733	40.05
810.907	35.7
811.081	35.72
811.255	34.81
811.428	35.63
811.602	33.44
811.776	33.44
811.95	30.89
812.123	28.5
812.297	23.74
812.471	27.62
812.644	20.97
812.818	22.14
812.992	25.71
813.165	27.02
813.339	30.89
813.512	33.54
813.686	34.73
813.86	40.55
814.033	40.44
814.207	43.03
814.38	39.77
814.554	41.06
814.727	42.35
814.9	42.91
815.074	41.11
815.247	41.16
815.421	37.56
815.594	35.55
815.767	29.23
815.941	32.75
816.114	33.45
816.287	28.5
816.46	31.63
816.634	29.4
816.807	25.13
816.98	20.86
817.153	22.93
817.327	30.65
817.5	32.98
817.673	33.59
817.846	32.85
818.019	33.82
818.192	35.43
818.365	33.85
818.538	34.02
818.711	33.67
818.884	37.25
819.057	34.88
819.23	35.45
819.403	35.46
819.576	36.17
819.749	34.41
819.922	35.64
820.095	38.47
820.268	44.01
820.441	48.64
820.614	50.91
820.786	49.81
820.959	49.9
821.132	46.82
821.305	47.68
821.477	46.73
821.65	46.07
821.823	45.71
821.996	44.64
822.168	42.16
822.341	42.17
822.514	41.36
822.686	41.18
822.859	41.44
823.031	40.99
823.204	39.84
823.376	41.17
823.549	41.52
823.722	41.35
823.894	40.91
824.067	41.31
824.239	40.43
824.411	39.78
824.584	40.1
824.756	39.29
824.929	39.6
825.101	39.72
825.273	38.05
825.446	36.9
825.618	37.08
825.79	37.68
825.963	37.96
826.135	37.77
826.307	39.41
826.479	39.99
826.652	41.41
826.824	42.09
826.996	42.73
827.168	42.27
827.34	42.43
827.512	40.43
827.684	39.02
827.856	37.24
828.029	37.92
828.201	37.74
828.373	36.3
828.545	34.5
828.717	34.44
828.889	33.11
829.061	33
829.232	32.01
829.404	33.21
829.576	35.9
829.748	38.25
829.92	37.7
830.092	37.71
830.264	38.16
830.436	38.16
830.607	38.62
830.779	41.13
830.951	39.72
831.123	41.93
831.294	40.76
831.466	41.41
831.638	38.23
831.809	37.91
831.981	36.43
832.153	32.3
832.324	35.55
832.496	33.03
832.667	30.99
832.839	34.22
833.011	34.36
833.182	35.53
833.354	34.27
833.525	34.36
833.697	33.66
833.868	35.25
834.039	35.8
834.211	36.17
834.382	35.3
834.554	37.18
834.725	36.73
834.896	36.07
835.068	35.88
835.239	33.63
835.41	34.08
835.581	35.05
835.753	33.08
835.924	34.51
836.095	31.72
836.266	31.07
836.438	28.07
836.609	27.5
836.78	30.71
836.951	34.29
837.122	37.47
837.293	36.23
837.464	33.59
837.635	31.93
837.806	29.5
837.977	32.24
838.148	33.02
838.319	31.84
838.49	32.88
838.661	20.76
838.832	18.01
839.003	20.99
839.174	24.56
839.345	27.37
839.516	25.85
839.687	25.45
839.857	21.97
840.028	25.98
840.199	29.22
840.37	32.56
840.54	37.56
840.711	32.58
840.882	29.46
841.053	31.46
841.223	28.35
841.394	29.61
841.564	35.14
841.735	30.93
841.906	30.07
842.076	29.44
842.247	23.78
842.417	22.42
842.588	31.17
842.758	29.57
842.929	23.75
843.099	35.82
843.27	45.26
843.44	48.12
843.611	53.78
843.781	50.62
843.951	50.14
844.122	54.41
844.292	55.21
844.462	46.91
844.633	59.14
844.803	66.55
844.973	60.95
845.144	51.73
845.314	49.66
845.484	45.27
845.654	52.83
845.824	55.14
845.995	38.37
846.165	41.67
846.335	47.79
846.505	32.32
846.675	33.12
846.845	30.96
847.015	34.6
847.185	25.1
847.355	24.43
847.525	24.67
847.695	32.73
847.865	39.42
848.035	49.37
848.205	54.38
848.375	64.66
848.545	72.15
848.715	70
848.884	80.62
849.054	83.59
849.224	93.24
849.394	87.8
849.564	67.76
849.733	68.25
849.903	32.85
850.073	23.26
850.243	25.55
850.412	16.92
850.582	14.38
850.752	12.63
850.921	2.92
851.091	3.2
851.26	4
851.43	5.06
851.599	7.09
851.769	34.57
851.939	31.53
852.108	28.18
852.278	26.2
852.447	43.13
852.616	24.1
852.786	22.41
852.955	18.42
853.125	0.92
853.294	11.39
853.463	-4.99
853.633	-18.13
853.802	-15.68
853.971	-23.91
854.141	-16.24
854.31	-21.55
854.479	-9.85
854.648	2.97
854.818	9.52
854.987	37
855.156	42.55
855.325	73.24
855.494	71.97
855.663	76.58
855.832	66.81
856.001	63.43
856.171	82.82
856.34	78.93
856.509	86.18
856.678	75.04
856.847	88.39
857.016	78.21
857.185	63.44
857.353	52.79
857.522	58.31
857.691	69.85
857.86	87.36
858.029	60.76
858.198	45.14
858.367	38.32
858.535	21.38
858.704	-0.39
858.873	8.11
859.042	5.95
859.21	20.88
859.379	18.39
859.548	8.95
859.717	3.91
859.885	0.54
860.054	20.28
860.222	16.7
860.391	38.43
860.56	52.9
860.728	56.5
860.897	59.91
861.065	31.07
861.234	50.48
861.402	72.96
861.571	59.75
861.739	51.64
861.908	37.61
862.076	40.84
862.244	34.1
862.413	11.81
862.581	2.17
862.749	-2.72
862.918	7.35
863.086	5.85
863.254	-3.72
863.423	-18.63
863.591	-4.35
863.759	-7.25
863.927	6.88
864.096	10.52
864.264	38.1
864.432	52.16
864.6	35.42
864.768	39.78
864.936	37.52
865.104	56.09
865.272	55.41
865.44	46.97
865.608	48.9
865.776	18.26
865.944	16.92
866.112	4.88
866.28	21.11
866.448	35.98
866.616	33.32
866.784	32.15
866.952	36.75
867.12	31.06
867.288	28.08
867.455	32
867.623	34.79
867.791	30.06
867.959	34.47
868.127	32.23
868.294	25.95
868.462	24.5
868.63	22.16
868.797	25.6
868.965	5.68
869.133	1.34
869.3	13.65
869.468	16.09
869.636	13.37
869.803	11.28
869.971	3.28
870.138	0.76
870.306	6.36
870.473	4.76
870.641	-13.34
870.808	13.15
870.975	18.01
871.143	-2.76
871.31	6.62
871.478	31.16
871.645	57.34
871.812	58.12
871.98	24.89
872.147	21.56
872.314	29.47
872.482	35.38
872.649	32.09
872.816	36.19
872.983	45.21
873.15	29.37
873.318	24.83
873.485	24.46
873.652	28.04
873.819	44.02
873.986	42.19
874.153	34.91
874.32	35.79
874.487	25.12
874.654	38.86
874.821	49.24
874.988	45.26
875.155	33.73
875.322	40.34
875.489	39.26
875.656	34.57
875.823	38.75
875.99	47.38
876.157	29.78
876.324	38.14
876.49	24.98
876.657	18.59
876.824	23.72
876.991	29.31
877.157	18.27
877.324	9.49
877.491	3.16
877.658	-1.9
877.824	3.38
877.991	28.07
878.157	36.16
878.324	51.98
878.491	60.71
878.657	63.96
878.824	67.57
878.99	70.34
879.157	62.78
879.323	55.48
879.49	59.98
879.656	60.89
879.823	57.02
879.989	56
880.156	42.1
880.322	37.06
880.488	32.78
880.655	28
880.821	26.51
880.987	27.24
881.154	33.37
881.32	33.06
881.486	31.03
881.652	27.76
881.819	26.27
881.985	26.88
882.151	26.3
882.317	29.92
882.483	32.74
882.649	32.92
882.816	34.73
882.982	36.59
883.148	35.64
883.314	36.35
883.48	38.13
883.646	40.49
883.812	42.41
883.978	41.28
884.144	39.49
884.31	37.66
884.476	33.87
884.642	35.16
884.807	31.5
884.973	29.18
885.139	26.87
885.305	24.28
885.471	21.97
885.637	24.27
885.802	23.96
885.968	21.87
886.134	20.99
886.3	22.69
886.465	17.81
886.631	19.31
886.797	23.64
886.962	22.31
887.128	28.63
887.293	29.53
887.459	23.13
887.625	20.49
887.79	21.9
887.956	20.26
888.121	26.35
888.287	32.12
888.452	33.95
888.618	26.85
888.783	34.64
