Data from 2938060_Reflection_2.txt Node
Date: Sun Jul 12 13:51:25 EDT 2015
User: robert
Spectrometer: USB4E03001
Autoset integration time: false
Trigger mode: 4
Integration Time (sec): 1.000000E-1
Scans to average: 10
Electric dark correction enabled: true
Nonlinearity correction enabled: false
Boxcar width: 5
Stray light correction enabled: false
XAxis mode: Wavelengths
Stop averaging: false
Number of Pixels in Spectrum: 3648
>>>>>Begin Spectral Data<<<<<
177.566	132.72
177.785	113.93
178.005	170.66
178.225	89.54
178.445	69.02
178.665	60.87
178.885	-652.89
179.105	55.66
179.324	102.33
179.544	71.89
179.764	821.3
179.984	1679.03
180.204	879.24
180.423	643.75
180.643	279.06
180.863	424.94
181.083	-1556.74
181.302	-187.38
181.522	-126.29
181.742	-152.74
181.961	-47.68
182.181	-72.07
182.401	-42.55
182.621	-96.56
182.84	-97.84
183.06	-36.6
183.279	-27.33
183.499	-100.18
183.719	-36.89
183.938	-14.36
184.158	-15.33
184.377	-32.13
184.597	-101.09
184.816	-109.55
185.036	-0.24
185.256	15.89
185.475	-21.43
185.695	-4.63
185.914	20.72
186.134	17.05
186.353	0.23
186.572	-1.05
186.792	13.35
187.011	-3.51
187.231	11.19
187.45	-18.58
187.67	-16.35
187.889	-11.24
188.108	-31.08
188.328	-24.65
188.547	-39.28
188.766	-76.4
188.986	-105.04
189.205	-112.26
189.424	-54.66
189.644	-99.2
189.863	-79.7
190.082	-78.86
190.302	-79.94
190.521	-62.08
190.74	-75.83
190.959	-184.98
191.178	-149.57
191.398	-79.92
191.617	-126.8
191.836	-286.56
192.055	-51600
192.274	1490.94
192.494	336.66
192.713	143.8
192.932	219.07
193.151	248.14
193.37	-84.18
193.589	-785.49
193.808	407.21
194.027	496.62
194.246	735.89
194.465	-2020.28
194.685	-202.92
194.904	-141.16
195.123	-58.89
195.342	-113.09
195.561	-126.41
195.78	-126.31
195.999	-149.56
196.218	-125.28
196.436	-59.91
196.655	-15.03
196.874	-61.16
197.093	-124.52
197.312	-395.58
197.531	-406.68
197.75	-302.96
197.969	1527.22
198.188	-346.81
198.407	-150.45
198.625	-53.66
198.844	-62.74
199.063	-87.03
199.282	-90.03
199.501	-145.12
199.719	-69.59
199.938	-133.76
200.157	-159.68
200.376	-155.38
200.594	-311.59
200.813	-168.64
201.032	-174.64
201.251	-290.93
201.469	-244.14
201.688	-230.05
201.907	-164.92
202.125	-330.39
202.344	-307.99
202.563	-137.85
202.781	-173.07
203	-175.08
203.218	-466.91
203.437	-4002.73
203.656	-415.06
203.874	-258.41
204.093	-203.07
204.311	-245.21
204.53	-163.78
204.748	-186.52
204.967	-645.84
205.185	-236.81
205.404	-220.31
205.622	-163.77
205.841	-155.51
206.059	-334.86
206.278	-610.94
206.496	-5099.51
206.715	1495.84
206.933	1568.01
207.151	-690.05
207.37	-619.95
207.588	-1115.92
207.806	-450.42
208.025	-456.99
208.243	-893.3
208.461	-442.64
208.68	2036.55
208.898	-440.5
209.116	-184.71
209.335	-292.17
209.553	-46222.73
209.771	-2605.19
209.989	-235.73
210.208	-377.07
210.426	-103.13
210.644	-139.8
210.862	-133.9
211.081	-50.13
211.299	-43.28
211.517	-58.01
211.735	-65.37
211.953	-38.05
212.171	-50.25
212.39	-104.38
212.608	-148.25
212.826	-750.04
213.044	-191.52
213.262	-81.71
213.48	-96.95
213.698	-136.78
213.916	-168.92
214.134	-97.47
214.352	-109.88
214.57	-97.05
214.788	-157.14
215.006	-92.13
215.224	-78.73
215.442	-521.87
215.66	730.86
215.878	407.18
216.096	852.23
216.314	1451.91
216.532	-476.33
216.75	-1453.87
216.968	-4813.61
217.185	-364.74
217.403	-2331.35
217.621	-376.31
217.839	-236.34
218.057	-227.67
218.275	-227.8
218.492	-229.52
218.71	-191.21
218.928	-399.49
219.146	-317.68
219.363	-153.39
219.581	-98.24
219.799	-70.82
220.017	-130.11
220.234	-119.94
220.452	-227.32
220.67	-200.72
220.887	-210.24
221.105	-287.15
221.323	-170.32
221.54	-138.73
221.758	-125.64
221.976	-182.73
222.193	-240.45
222.411	-194.28
222.629	-127.22
222.846	-94.94
223.064	-175.06
223.281	-156.68
223.499	-113.79
223.716	-134.83
223.934	-91.12
224.151	-121.4
224.369	-90.48
224.586	-61.12
224.804	-34.35
225.021	-60.91
225.239	-29.8
225.456	-9.49
225.674	-11.68
225.891	-6.99
226.108	-20.1
226.326	-25.55
226.543	-26.39
226.76	-19.96
226.978	-29.72
227.195	-30.97
227.413	-28.63
227.63	-28.14
227.847	-23.04
228.064	-18.03
228.282	-19.75
228.499	-15.87
228.716	-15.11
228.934	-10.41
229.151	-7.81
229.368	-2.68
229.585	-3.49
229.802	-2.77
230.02	-3.94
230.237	-3.96
230.454	-6.23
230.671	-4.7
230.888	-5.97
231.105	-9
231.323	-13.31
231.54	-19.44
231.757	-31.02
231.974	-29.28
232.191	-39.44
232.408	-42.67
232.625	-40.83
232.842	-38.3
233.059	-43.22
233.276	-42.53
233.493	-31.05
233.71	-38.63
233.927	-31.39
234.144	-32.75
234.361	-38.27
234.578	-33.78
234.795	-30.09
235.012	-30.52
235.229	-30.28
235.446	-28.96
235.663	-25
235.879	-31.78
236.096	-25.9
236.313	-24.46
236.53	-16.95
236.747	-17.28
236.964	-19.87
237.181	-17.42
237.397	-13.26
237.614	-10.25
237.831	-10.92
238.048	-15.01
238.264	-13.72
238.481	-14.27
238.698	-16.07
238.915	-22.99
239.131	-26.82
239.348	-17.44
239.565	-20.79
239.781	-16.89
239.998	-20.91
240.215	-20.39
240.431	-14.39
240.648	-10.94
240.865	-9.84
241.081	-8.63
241.298	-4.77
241.514	-1.86
241.731	-3.23
241.947	0.25
242.164	-1.3
242.38	-0.01
242.597	1.49
242.814	1.42
243.03	0.18
243.246	2.03
243.463	2.07
243.679	2.18
243.896	1.95
244.112	4.62
244.329	3.04
244.545	4.18
244.762	4
244.978	3.4
245.194	3.07
245.411	4.36
245.627	3.12
245.843	2.3
246.06	1.93
246.276	3.22
246.492	2.06
246.709	3.55
246.925	3.1
247.141	3.21
247.357	3.93
247.574	3.51
247.79	3.97
248.006	4.26
248.222	5.5
248.439	5.42
248.655	5.15
248.871	4.66
249.087	3.58
249.303	3.58
249.519	4.18
249.736	5.57
249.952	5.44
250.168	4.28
250.384	3.57
250.6	2.59
250.816	2.41
251.032	0.23
251.248	3.07
251.464	2.31
251.68	2.77
251.896	1.71
252.112	1.28
252.328	0.77
252.544	0.66
252.76	-0.41
252.976	-1.89
253.192	-0.44
253.408	3.24
253.624	2.39
253.84	0.3
254.056	-0.11
254.272	-0.16
254.487	-2.86
254.703	-1.73
254.919	0.01
255.135	1.9
255.351	3.58
255.567	1.57
255.782	-2.39
255.998	-3.28
256.214	-2.01
256.43	-0.59
256.646	2.69
256.861	1.35
257.077	2.17
257.293	1.91
257.508	3.27
257.724	2.25
257.94	3.67
258.155	5.23
258.371	4.33
258.587	5.61
258.802	6
259.018	4.41
259.234	4.76
259.449	4.68
259.665	4.75
259.88	4.59
260.096	5.43
260.312	5.55
260.527	5.56
260.743	5.82
260.958	6.11
261.174	4.84
261.389	5.12
261.605	5.74
261.82	5.77
262.036	4.81
262.251	4.09
262.466	2.55
262.682	2.29
262.897	1.02
263.113	1.99
263.328	-0.22
263.543	0.5
263.759	0.46
263.974	-2.18
264.189	-1.71
264.405	-0.2
264.62	0.86
264.835	1.86
265.051	1.8
265.266	1.32
265.481	0.29
265.696	3.12
265.912	2.68
266.127	2.67
266.342	4
266.557	3.92
266.773	4.69
266.988	1.91
267.203	0.58
267.418	0.03
267.633	0.28
267.848	-0.71
268.064	-1.7
268.279	-0.99
268.494	-2.02
268.709	-2.39
268.924	-3.2
269.139	-4.7
269.354	-3.19
269.569	-3.01
269.784	-4
269.999	-3.66
270.214	-2.79
270.429	-2.61
270.644	-2.76
270.859	-1.9
271.074	-2.04
271.289	-0.66
271.504	0.18
271.719	1.54
271.934	2.6
272.149	2.9
272.363	2.61
272.578	2.64
272.793	2.16
273.008	2.96
273.223	3.04
273.438	3.1
273.653	1.99
273.867	1.59
274.082	0.78
274.297	-0.35
274.512	0.37
274.726	-0.1
274.941	0.84
275.156	1.17
275.371	-0.83
275.585	-0.21
275.8	-0.35
276.015	0.43
276.229	0.67
276.444	1.1
276.659	0.7
276.873	0.93
277.088	0.32
277.302	-0.86
277.517	-0.4
277.732	0.33
277.946	-0.41
278.161	0.33
278.375	-0.7
278.59	-0.85
278.804	-1.77
279.019	-0.58
279.233	-1.29
279.448	0.08
279.662	0.25
279.877	1.01
280.091	1.54
280.306	2.31
280.52	1.76
280.735	3.1
280.949	3.3
281.163	2.76
281.378	2.82
281.592	3.89
281.806	4.61
282.021	4.32
282.235	3.5
282.449	4.08
282.664	4.01
282.878	3.42
283.092	2.48
283.307	3.15
283.521	3.22
283.735	3.55
283.949	1.99
284.164	2.49
284.378	2.32
284.592	2.74
284.806	3.38
285.02	2.68
285.234	3.33
285.449	3.68
285.663	2.99
285.877	2.88
286.091	2.47
286.305	2.63
286.519	2.01
286.733	2.29
286.947	1.83
287.161	0.92
287.375	1.11
287.589	1.33
287.803	1.58
288.017	1.55
288.231	2.38
288.445	1.6
288.659	2.61
288.873	1.74
289.087	2.06
289.301	1.65
289.515	2.31
289.729	2.7
289.943	2.12
290.157	1.45
290.371	2.23
290.584	2.36
290.798	3.71
291.012	3.65
291.226	4.84
291.44	5.07
291.654	5.2
291.867	3.85
292.081	3.95
292.295	3.88
292.509	4.1
292.722	3.78
292.936	4.14
293.15	2.95
293.364	2.81
293.577	2.64
293.791	3.82
294.005	4.55
294.218	4.69
294.432	4.4
294.645	5.13
294.859	5.67
295.073	4.39
295.286	2.8
295.5	3.84
295.713	4.01
295.927	3.65
296.14	2.62
296.354	1.94
296.568	3.33
296.781	3.44
296.994	3.62
297.208	3.78
297.421	4.1
297.635	5.04
297.848	4.6
298.062	5.07
298.275	5.5
298.489	5.05
298.702	5.86
298.915	5
299.129	5.39
299.342	4.92
299.555	5.21
299.769	4.71
299.982	4.67
300.195	5.1
300.409	4.33
300.622	3.73
300.835	4.44
301.048	4.48
301.262	5.48
301.475	4.95
301.688	6.19
301.901	4.96
302.115	6.06
302.328	6.34
302.541	5.73
302.754	6.26
302.967	6.7
303.18	6.14
303.393	4.63
303.607	3.26
303.82	3.34
304.033	2.74
304.246	2.54
304.459	2.42
304.672	1.89
304.885	1.76
305.098	2.46
305.311	1.4
305.524	2.01
305.737	2.39
305.95	2.21
306.163	2.04
306.376	3.05
306.589	2.76
306.802	2.64
307.015	1.77
307.228	1.1
307.44	-0.28
307.653	0.2
307.866	-1.04
308.079	-0.57
308.292	-0.77
308.505	-0.32
308.718	-1.21
308.93	-0.76
309.143	-1.58
309.356	-0.49
309.569	1.51
309.781	1.91
309.994	2.63
310.207	3.25
310.42	3.42
310.632	4.72
310.845	4.16
311.058	3.97
311.27	3.86
311.483	5.85
311.696	5.06
311.908	4.88
312.121	4.24
312.333	4.18
312.546	4.24
312.759	4.9
312.971	3.54
313.184	4.53
313.396	3.61
313.609	4.48
313.821	2.81
314.034	3.48
314.246	3.23
314.459	4.43
314.671	3.39
314.884	3.08
315.096	3.26
315.309	3.73
315.521	2.05
315.733	2.7
315.946	1.89
316.158	0.8
316.371	1.94
316.583	1.87
316.795	0.13
317.008	0.1
317.22	0.16
317.432	-0.78
317.644	-0.15
317.857	-0.21
318.069	1
318.281	1
318.494	2.28
318.706	0.84
318.918	0.25
319.13	1.55
319.342	3.12
319.555	2.62
319.767	3.31
319.979	2.82
320.191	4.76
320.403	4.44
320.615	4.32
320.827	6.01
321.039	6.53
321.252	6.2
321.464	6.1
321.676	5.01
321.888	5.77
322.1	5.21
322.312	5.48
322.524	5.21
322.736	5.8
322.948	5.58
323.16	5.53
323.372	5.04
323.584	7.14
323.796	8.11
324.007	8.25
324.219	8.56
324.431	7.87
324.643	7.44
324.855	6
325.067	6.18
325.279	5.26
325.491	5.06
325.702	5.72
325.914	3.46
326.126	2.74
326.338	2.25
326.55	1.46
326.761	1.39
326.973	1.96
327.185	3.49
327.396	1.86
327.608	3.82
327.82	2.47
328.032	0.9
328.243	0.22
328.455	-1.79
328.666	-3.36
328.878	-2.22
329.09	-1.78
329.301	-1.34
329.513	-2.4
329.725	-2.02
329.936	-3.59
330.148	-3.93
330.359	-1.7
330.571	-0.39
330.782	0.71
330.994	3.04
331.205	2.78
331.417	3.21
331.628	3.39
331.84	4.24
332.051	3.14
332.262	4.01
332.474	4.39
332.685	4.92
332.897	5.31
333.108	3.61
333.319	3.02
333.531	2.23
333.742	2.58
333.953	2.15
334.165	2.03
334.376	3.65
334.587	3.15
334.799	3.66
335.01	2.64
335.221	1.25
335.432	3.3
335.644	3.66
335.855	3.97
336.066	4.5
336.277	4.49
336.488	4.81
336.7	4.37
336.911	4.44
337.122	4.41
337.333	5.44
337.544	7.43
337.755	7.2
337.966	7.28
338.177	7.83
338.388	6.58
338.599	5.96
338.811	4.23
339.022	4.72
339.233	5.8
339.444	6.02
339.655	4.94
339.866	4.6
340.076	5.3
340.287	5.26
340.498	4.29
340.709	3.89
340.92	5.19
341.131	6.61
341.342	6.41
341.553	4.53
341.764	3.94
341.975	3.51
342.185	1.79
342.396	2.13
342.607	2.11
342.818	2.87
343.029	3.65
343.239	1.55
343.45	1.46
343.661	0.81
343.872	1.25
344.082	0.63
344.293	0.64
344.504	1.58
344.714	0.06
344.925	0.77
345.136	-0.05
345.346	-0
345.557	-0.35
345.768	-0.37
345.978	-0.99
346.189	-0.19
346.399	0.27
346.61	1.32
346.821	0.72
347.031	1.49
347.242	-0.5
347.452	-0.55
347.663	-1.25
347.873	0.29
348.084	-0.62
348.294	-0.07
348.504	-0.15
348.715	0.85
348.925	-0.09
349.136	0.87
349.346	0.43
349.557	1.53
349.767	1.72
349.977	1.88
350.188	0.2
350.398	2.16
350.608	2.17
350.819	3.09
351.029	2.83
351.239	2.69
351.449	1.96
351.66	2.64
351.87	2.67
352.08	3.23
352.29	3.56
352.501	5.84
352.711	4.55
352.921	4.71
353.131	3.71
353.341	2.8
353.552	3.05
353.762	3.15
353.972	2.9
354.182	3.35
354.392	3.74
354.602	3.64
354.812	2.7
355.022	3.11
355.232	2.39
355.442	2.86
355.652	2.55
355.862	2.81
356.072	3.11
356.282	3.15
356.492	2.36
356.702	2.21
356.912	2.5
357.122	2.76
357.332	2.18
357.542	3.4
357.752	3.6
357.962	3.99
358.171	3.89
358.381	4.96
358.591	4.35
358.801	4.54
359.011	4.75
359.221	5.05
359.43	5.11
359.64	5.4
359.85	5.3
360.06	4.87
360.269	4.67
360.479	4.53
360.689	3.6
360.899	3.79
361.108	4.25
361.318	3.92
361.528	4.15
361.737	4.65
361.947	4.43
362.156	4.31
362.366	4.37
362.576	4.33
362.785	4.22
362.995	3.76
363.204	3.78
363.414	3.66
363.623	3.92
363.833	3.28
364.042	3.09
364.252	2.94
364.461	2.52
364.671	2.81
364.88	2.84
365.09	3.06
365.299	3.77
365.509	4.62
365.718	4.63
365.927	4.79
366.137	4.62
366.346	4.22
366.555	4.94
366.765	5.48
366.974	4.91
367.183	4.92
367.393	4.87
367.602	5.03
367.811	3.85
368.021	3.36
368.23	2.92
368.439	2.55
368.648	1.98
368.857	1.31
369.067	1.28
369.276	1.34
369.485	1.26
369.694	0.99
369.903	0.02
370.112	1.51
370.321	1.66
370.531	1.4
370.74	1.35
370.949	1.93
371.158	2.02
371.367	2.48
371.576	2.64
371.785	2.93
371.994	3.13
372.203	3.36
372.412	2.23
372.621	2.24
372.83	2.84
373.039	3.79
373.248	3.78
373.457	3.82
373.666	3.23
373.874	2.68
374.083	3.25
374.292	3.45
374.501	4
374.71	4.27
374.919	4.17
375.128	3.9
375.336	2.85
375.545	2.33
375.754	2.34
375.963	2.11
376.171	2.83
376.38	2.19
376.589	1.61
376.798	1.57
377.006	1.38
377.215	1.61
377.424	1.5
377.632	2.38
377.841	2.21
378.05	1.71
378.258	1.97
378.467	1.17
378.675	1.44
378.884	1.71
379.093	1.43
379.301	1.78
379.51	1.79
379.718	1.8
379.927	1.08
380.135	1.65
380.344	2.16
380.552	2.19
380.761	2.73
380.969	2.97
381.177	2.87
381.386	3.26
381.594	3.29
381.803	3.14
382.011	2.55
382.219	3.19
382.428	3.28
382.636	3.02
382.845	2.93
383.053	2.71
383.261	2.15
383.469	2.14
383.678	1.82
383.886	1.66
384.094	1.55
384.302	2.09
384.511	1.92
384.719	1.87
384.927	2.42
385.135	2.99
385.343	2.95
385.552	2.89
385.76	3.09
385.968	2.92
386.176	3.14
386.384	3.56
386.592	3.77
386.8	3.62
387.008	3.5
387.216	3.12
387.424	2.21
387.633	2.03
387.841	1.97
388.049	1.65
388.257	1.67
388.465	1.62
388.672	1.36
388.88	0.93
389.088	0.88
389.296	0.74
389.504	0.61
389.712	0.94
389.92	1.45
390.128	1.37
390.336	1.45
390.544	1.95
390.751	1.6
390.959	1.69
391.167	1.77
391.375	1.97
391.583	1.84
391.79	2.12
391.998	2.17
392.206	2.28
392.414	2.77
392.621	2.85
392.829	2.6
393.037	2.66
393.244	2.65
393.452	2.26
393.66	2.13
393.867	2.25
394.075	2.19
394.283	1.98
394.49	1.74
394.698	1.3
394.905	1.11
395.113	0.93
395.32	1.13
395.528	1.13
395.735	1.46
395.943	1.92
396.15	2.11
396.358	1.88
396.565	1.82
396.773	1.67
396.98	1.57
397.188	1.74
397.395	1.84
397.602	1.69
397.81	1.74
398.017	1.61
398.225	1.61
398.432	1.92
398.639	2.34
398.847	2.52
399.054	2.71
399.261	3.12
399.468	3.13
399.676	2.77
399.883	2.83
400.09	2.82
400.297	3.13
400.505	3.13
400.712	2.25
400.919	1.76
401.126	1.96
401.333	2.06
401.54	2.03
401.748	2.04
401.955	2.47
402.162	1.95
402.369	1.85
402.576	1.9
402.783	1.46
402.99	1.57
403.197	1.67
403.404	1.32
403.611	1.15
403.818	1.03
404.025	0.96
404.232	0.96
404.439	1.47
404.646	1.53
404.853	1.46
405.06	1.67
405.267	1.91
405.474	2.07
405.681	2.47
405.887	2.53
406.094	2.49
406.301	2.49
406.508	2.06
406.715	1.75
406.922	1.69
407.128	1.66
407.335	1.39
407.542	1.64
407.749	1.78
407.955	1.39
408.162	1.22
408.369	1.6
408.575	1.46
408.782	2.1
408.989	2.27
409.195	2.37
409.402	1.84
409.609	2
409.815	1.78
410.022	1.85
410.228	1.79
410.435	1.87
410.642	1.72
410.848	1.87
411.055	1.61
411.261	1.58
411.468	1.34
411.674	1.9
411.881	1.74
412.087	1.96
412.294	1.54
412.5	1.89
412.706	2.02
412.913	1.88
413.119	2.02
413.326	2.1
413.532	1.98
413.738	2.42
413.945	2.58
414.151	2.37
414.357	2.08
414.564	2.13
414.77	2.06
414.976	1.79
415.182	1.76
415.389	1.67
415.595	1.48
415.801	1.57
416.007	1.18
416.214	1.01
416.42	1.34
416.626	1.36
416.832	1.33
417.038	1.3
417.244	1.88
417.45	1.95
417.657	2.1
417.863	2.1
418.069	2.19
418.275	2.06
418.481	2.2
418.687	2.16
418.893	2.18
419.099	2.35
419.305	2.2
419.511	1.79
419.717	1.87
419.923	1.61
420.129	1.75
420.335	1.6
420.541	1.77
420.746	1.57
420.952	1.65
421.158	1.62
421.364	1.5
421.57	1.55
421.776	1.56
421.982	1.46
422.187	1.52
422.393	1.46
422.599	1.69
422.805	1.57
423.01	1.71
423.216	1.7
423.422	1.8
423.628	1.99
423.833	2.09
424.039	2.11
424.245	2.14
424.45	2.19
424.656	2.26
424.862	2.26
425.067	2.35
425.273	2.28
425.478	2.13
425.684	2.08
425.889	2.05
426.095	2.08
426.301	2.28
426.506	2.23
426.712	2.49
426.917	2.46
427.123	2.4
427.328	2.53
427.533	2.54
427.739	2.54
427.944	2.6
428.15	2.55
428.355	2.33
428.561	2.02
428.766	2.01
428.971	1.64
429.177	1.53
429.382	1.41
429.587	1.08
429.793	1.09
429.998	1.18
430.203	0.97
430.408	0.71
430.614	0.83
430.819	0.91
431.024	0.91
431.229	1.08
431.434	1.04
431.64	0.87
431.845	1.06
432.05	1.17
432.255	1.18
432.46	1.25
432.665	1.51
432.87	1.38
433.076	1.36
433.281	1.31
433.486	1.25
433.691	1.41
433.896	1.74
434.101	1.72
434.306	1.57
434.511	1.5
434.716	1.54
434.921	1.37
435.126	1.57
435.331	1.67
435.535	1.71
435.74	1.77
435.945	1.61
436.15	1.48
436.355	1.46
436.56	1.56
436.765	1.53
436.97	1.43
437.174	1.48
437.379	1.38
437.584	1.33
437.789	1.26
437.993	1.1
438.198	1.14
438.403	1.07
438.608	1.2
438.812	1.21
439.017	1.48
439.222	1.57
439.426	1.42
439.631	1.43
439.836	1.43
440.04	1.59
440.245	1.79
440.45	1.84
440.654	1.87
440.859	1.75
441.063	1.8
441.268	1.76
441.472	1.74
441.677	1.78
441.881	1.78
442.086	1.65
442.29	1.63
442.495	1.41
442.699	1.42
442.904	1.33
443.108	1.53
443.312	1.5
443.517	1.4
443.721	1.43
443.925	1.62
444.13	1.68
444.334	1.78
444.538	1.79
444.743	1.77
444.947	1.84
445.151	1.94
445.356	1.9
445.56	1.82
445.764	1.83
445.968	1.8
446.173	1.81
446.377	1.87
446.581	1.91
446.785	1.92
446.989	2.01
447.193	1.9
447.398	1.88
447.602	1.74
447.806	1.76
448.01	1.7
448.214	1.72
448.418	1.54
448.622	1.33
448.826	1.2
449.03	1.06
449.234	1.13
449.438	1.23
449.642	1.16
449.846	1.25
450.05	1.25
450.254	1.22
450.458	1.18
450.662	1.25
450.866	1.39
451.069	1.5
451.273	1.63
451.477	1.27
451.681	1.07
451.885	0.99
452.089	1.02
452.292	1.05
452.496	1.03
452.7	1.17
452.904	1.25
453.107	1.29
453.311	1.32
453.515	1.21
453.719	1.36
453.922	1.47
454.126	1.52
454.33	1.53
454.533	1.61
454.737	1.84
454.94	1.83
455.144	1.62
455.348	1.43
455.551	1.35
455.755	1.47
455.958	1.52
456.162	1.44
456.365	1.57
456.569	1.38
456.772	1.16
456.976	1.06
457.179	0.89
457.383	1.03
457.586	1.17
457.79	1.35
457.993	1.18
458.196	1.13
458.4	1.2
458.603	1.14
458.807	1.28
459.01	1.35
459.213	1.39
459.417	1.38
459.62	1.39
459.823	1.39
460.026	1.28
460.23	1.52
460.433	1.59
460.636	1.66
460.839	1.75
461.042	1.78
461.246	1.87
461.449	1.86
461.652	1.91
461.855	1.82
462.058	1.85
462.261	1.79
462.464	1.54
462.668	1.36
462.871	1.51
463.074	1.31
463.277	1.3
463.48	1.26
463.683	1.16
463.886	0.98
464.089	1.14
464.292	1
464.495	1.28
464.698	1.23
464.901	1.45
465.104	1.13
465.306	1.26
465.509	1.38
465.712	1.39
465.915	1.48
466.118	1.74
466.321	1.68
466.524	1.72
466.726	1.46
466.929	1.59
467.132	1.58
467.335	1.63
467.538	1.54
467.74	1.4
467.943	1.24
468.146	1.17
468.348	0.94
468.551	0.96
468.754	1.08
468.956	1.15
469.159	1.04
469.362	0.99
469.564	1.06
469.767	1.1
469.969	1.05
470.172	1.21
470.375	1.16
470.577	1.2
470.78	1.17
470.982	1.19
471.185	1.28
471.387	1.15
471.59	1.17
471.792	1.21
471.995	1.41
472.197	1.52
472.399	1.55
472.602	1.62
472.804	1.76
473.007	1.68
473.209	1.83
473.411	1.71
473.614	1.87
473.816	1.92
474.018	1.84
474.22	1.74
474.423	1.56
474.625	1.37
474.827	1.4
475.03	1.32
475.232	1.31
475.434	1.03
475.636	1.21
475.838	1.13
476.04	1.09
476.243	1.05
476.445	0.98
476.647	1.18
476.849	1.3
477.051	1.3
477.253	1.46
477.455	1.73
477.657	1.75
477.859	1.45
478.061	1.69
478.263	1.62
478.465	1.77
478.667	1.7
478.869	1.58
479.071	1.52
479.273	1.57
479.475	1.41
479.677	1.27
479.879	1.29
480.081	1.48
480.283	1.4
480.485	1.49
480.686	1.23
480.888	1.28
481.09	1.29
481.292	1.2
481.494	1.24
481.695	1.43
481.897	1.5
482.099	1.66
482.301	1.77
482.502	1.75
482.704	1.82
482.906	1.87
483.107	1.87
483.309	1.9
483.511	1.97
483.712	1.92
483.914	1.89
484.115	1.91
484.317	1.86
484.519	1.81
484.72	1.78
484.922	1.8
485.123	1.84
485.325	1.86
485.526	1.78
485.728	1.81
485.929	1.83
486.131	1.8
486.332	1.75
486.534	1.71
486.735	1.74
486.936	1.81
487.138	1.84
487.339	1.87
487.541	1.83
487.742	1.9
487.943	1.84
488.144	1.81
488.346	1.8
488.547	1.77
488.748	1.78
488.95	1.8
489.151	1.84
489.352	1.81
489.553	1.75
489.755	1.78
489.956	1.64
490.157	1.66
490.358	1.72
490.559	1.8
490.76	1.89
490.961	1.88
491.163	1.89
491.364	1.78
491.565	1.72
491.766	1.77
491.967	1.78
492.168	1.85
492.369	1.88
492.57	1.77
492.771	1.8
492.972	1.76
493.173	1.77
493.374	1.81
493.575	1.75
493.776	1.73
493.976	1.61
494.177	1.56
494.378	1.51
494.579	1.36
494.78	1.53
494.981	1.44
495.182	1.35
495.382	1.36
495.583	1.18
495.784	1.33
495.985	1.37
496.185	1.43
496.386	1.56
496.587	1.74
496.788	1.75
496.988	1.74
497.189	1.83
497.39	1.88
497.59	1.88
497.791	1.85
497.992	1.9
498.192	1.85
498.393	1.87
498.593	1.68
498.794	1.62
498.994	1.75
499.195	1.79
499.395	1.7
499.596	1.58
499.796	1.47
499.997	1.57
500.197	1.53
500.398	1.62
500.598	1.53
500.799	1.59
500.999	1.4
501.199	1.25
501.4	1.18
501.6	1.13
501.801	1.25
502.001	1.3
502.201	1.08
502.402	1.05
502.602	0.97
502.802	0.98
503.002	1.11
503.203	1.39
503.403	1.47
503.603	1.34
503.803	1.49
504.003	1.46
504.204	1.41
504.404	1.78
504.604	1.71
504.804	1.66
505.004	1.9
505.204	1.77
505.404	1.85
505.604	2.07
505.804	2.23
506.005	2.12
506.205	2.14
506.405	2.19
506.605	1.91
506.805	1.85
507.005	1.97
507.204	1.82
507.404	1.98
507.604	1.84
507.804	1.81
508.004	1.69
508.204	1.74
508.404	1.7
508.604	1.73
508.804	1.68
509.003	1.77
509.203	1.71
509.403	1.63
509.603	1.51
509.803	1.57
510.002	1.41
510.202	1.39
510.402	1.39
510.602	1.57
510.801	1.64
511.001	1.85
511.201	1.88
511.4	1.87
511.6	1.83
511.8	1.74
511.999	1.7
512.199	1.72
512.398	1.78
512.598	1.62
512.797	1.55
512.997	1.56
513.197	1.43
513.396	1.47
513.596	1.47
513.795	1.67
513.994	1.8
514.194	1.7
514.393	1.71
514.593	1.82
514.792	1.91
514.992	1.77
515.191	1.74
515.39	1.9
515.59	1.78
515.789	1.68
515.988	1.59
516.188	1.5
516.387	1.53
516.586	1.63
516.786	1.64
516.985	1.67
517.184	1.82
517.383	1.82
517.582	1.74
517.782	1.84
517.981	2.03
518.18	2.03
518.379	2.13
518.578	2.17
518.777	2.15
518.976	2.15
519.176	2.22
519.375	2.32
519.574	2.4
519.773	2.43
519.972	2.39
520.171	2.22
520.37	2.16
520.569	2.06
520.768	2.05
520.967	2.23
521.166	2.14
521.365	2.05
521.564	1.89
521.762	1.79
521.961	1.7
522.16	1.65
522.359	1.64
522.558	1.8
522.757	1.94
522.956	1.95
523.154	1.8
523.353	1.94
523.552	1.98
523.751	2
523.949	2.02
524.148	2.07
524.347	2.21
524.546	2.25
524.744	2.31
524.943	2.15
525.142	2.18
525.34	2.12
525.539	2.07
525.737	2.15
525.936	2.13
526.135	2.13
526.333	2.21
526.532	2.15
526.73	2.24
526.929	2.23
527.127	2.42
527.326	2.42
527.524	2.48
527.723	2.47
527.921	2.52
528.12	2.51
528.318	2.51
528.516	2.5
528.715	2.56
528.913	2.54
529.112	2.56
529.31	2.52
529.508	2.52
529.707	2.56
529.905	2.63
530.103	2.58
530.301	2.69
530.5	2.73
530.698	2.74
530.896	2.73
531.094	2.8
531.293	2.75
531.491	2.88
531.689	2.95
531.887	2.97
532.085	2.94
532.283	2.99
532.481	2.92
532.68	3.01
532.878	3.06
533.076	3.05
533.274	3.01
533.472	2.99
533.67	2.91
533.868	2.86
534.066	2.74
534.264	2.79
534.462	2.73
534.66	2.77
534.858	2.67
535.056	2.67
535.253	2.67
535.451	2.69
535.649	2.8
535.847	2.87
536.045	2.92
536.243	3.02
536.441	2.96
536.638	2.99
536.836	2.95
537.034	3.03
537.232	3.03
537.43	3
537.627	2.98
537.825	2.92
538.023	2.84
538.22	2.84
538.418	2.8
538.616	2.78
538.813	2.79
539.011	2.8
539.209	2.69
539.406	2.71
539.604	2.8
539.801	2.92
539.999	2.93
540.196	2.97
540.394	3.12
540.591	3.26
540.789	3.25
540.986	3.29
541.184	3.37
541.381	3.52
541.579	3.57
541.776	3.59
541.974	3.58
542.171	3.67
542.368	3.67
542.566	3.55
542.763	3.55
542.96	3.63
543.158	3.72
543.355	3.77
543.552	3.71
543.75	3.64
543.947	3.7
544.144	3.7
544.341	3.64
544.539	3.77
544.736	3.93
544.933	3.96
545.13	3.88
545.327	3.73
545.524	3.75
545.722	3.84
545.919	3.93
546.116	3.8
546.313	3.94
546.51	4.05
546.707	4.03
546.904	4.03
547.101	4.1
547.298	4.25
547.495	4.1
547.692	4.14
547.889	4.11
548.086	4.11
548.283	4.17
548.48	4.19
548.677	4.12
548.874	4.26
549.07	4.31
549.267	4.32
549.464	4.22
549.661	4.43
549.858	4.4
550.055	4.33
550.251	4.48
550.448	4.76
550.645	4.74
550.842	4.72
551.038	4.71
551.235	4.79
551.432	4.74
551.628	4.87
551.825	4.99
552.022	5.07
552.218	5.03
552.415	5
552.612	5.05
552.808	5.17
553.005	5.14
553.201	5.09
553.398	5.09
553.594	4.97
553.791	5.09
553.987	5.25
554.184	5.33
554.38	5.5
554.577	5.4
554.773	5.08
554.97	4.96
555.166	5.15
555.362	5.03
555.559	5.11
555.755	5.43
555.952	5.51
556.148	5.53
556.344	5.38
556.541	5.35
556.737	5.43
556.933	5.69
557.129	5.59
557.326	5.72
557.522	6.07
557.718	6.17
557.914	5.81
558.11	5.65
558.307	5.64
558.503	5.79
558.699	5.94
558.895	6.31
559.091	6.44
559.287	6.61
559.483	6.42
559.679	6.28
559.876	6.22
560.072	6.54
560.268	6.65
560.464	6.75
560.66	6.76
560.856	6.75
561.052	6.65
561.247	6.87
561.443	7.12
561.639	7.31
561.835	7.58
562.031	7.51
562.227	7.55
562.423	7.62
562.619	7.81
562.815	7.87
563.01	7.85
563.206	7.85
563.402	7.72
563.598	7.66
563.793	7.62
563.989	7.4
564.185	7.3
564.381	7.51
564.576	7.52
564.772	7.42
564.968	7.43
565.163	7.66
565.359	7.79
565.555	7.72
565.75	7.54
565.946	7.82
566.141	7.97
566.337	8.17
566.532	8.04
566.728	8.14
566.923	8.05
567.119	8.09
567.314	8.08
567.51	8
567.705	7.98
567.901	8.29
568.096	8
568.292	8.13
568.487	8.25
568.682	8.23
568.878	8.09
569.073	8.27
569.268	8.36
569.464	8.24
569.659	8.27
569.854	8.35
570.05	8.11
570.245	8.27
570.44	8.29
570.635	8.26
570.831	8.44
571.026	8.54
571.221	8.56
571.416	8.47
571.611	8.63
571.806	8.71
572.002	8.8
572.197	9
572.392	8.94
572.587	9.03
572.782	9.09
572.977	8.96
573.172	9.02
573.367	8.99
573.562	9.17
573.757	9.22
573.952	9.26
574.147	9.22
574.342	9.14
574.537	9.18
574.732	9.06
574.927	9.06
575.121	9.05
575.316	9.08
575.511	9.15
575.706	9.09
575.901	9.01
576.096	8.93
576.29	9.1
576.485	9.22
576.68	9.38
576.875	9.36
577.069	9.25
577.264	9.36
577.459	9.33
577.654	9.38
577.848	9.53
578.043	9.66
578.238	9.83
578.432	9.55
578.627	9.55
578.821	9.46
579.016	9.56
579.21	9.62
579.405	9.66
579.6	9.65
579.794	9.47
579.989	9.3
580.183	9.34
580.378	9.21
580.572	9.34
580.766	9.47
580.961	9.66
581.155	9.66
581.35	9.81
581.544	10.04
581.738	10
581.933	10.12
582.127	10.25
582.321	10.2
582.516	10.18
582.71	10.07
582.904	9.71
583.099	9.73
583.293	9.84
583.487	9.77
583.681	9.34
583.875	9.49
584.07	9.53
584.264	9.3
584.458	9.44
584.652	9.51
584.846	9.6
585.04	9.96
585.234	9.84
585.428	9.81
585.623	9.97
585.817	10.15
586.011	10.13
586.205	10.06
586.399	10.17
586.593	10.16
586.787	10.07
586.981	10.01
587.174	9.64
587.368	9.62
587.562	9.6
587.756	9.64
587.95	9.58
588.144	9.52
588.338	9.66
588.532	9.64
588.725	9.45
588.919	9.53
589.113	9.7
589.307	10.19
589.501	10.42
589.694	10.35
589.888	10.21
590.082	10.63
590.275	10.66
590.469	10.7
590.663	10.75
590.856	10.99
591.05	11.07
591.244	11.1
591.437	10.71
591.631	10.43
591.824	10.38
592.018	10.53
592.212	10.34
592.405	10.46
592.599	10.28
592.792	10.51
592.986	10.26
593.179	10.26
593.372	10.22
593.566	10.59
593.759	10.81
593.953	10.8
594.146	10.62
594.339	10.63
594.533	10.65
594.726	10.67
594.92	10.55
595.113	10.82
595.306	10.76
595.499	10.95
595.693	10.79
595.886	10.63
596.079	10.74
596.272	10.76
596.466	10.61
596.659	10.34
596.852	10.35
597.045	10.18
597.238	9.91
597.431	9.93
597.624	9.74
597.818	9.89
598.011	9.94
598.204	9.75
598.397	9.84
598.59	9.94
598.783	10.11
598.976	10.02
599.169	10.15
599.362	10.32
599.555	10.06
599.748	10.19
599.941	9.97
600.134	10.07
600.326	10.14
600.519	10.08
600.712	10.16
600.905	10.22
601.098	10.36
601.291	10.41
601.483	10.42
601.676	10.79
601.869	10.79
602.062	10.92
602.255	10.78
602.447	10.76
602.64	10.77
602.833	10.58
603.025	10.78
603.218	11.04
603.411	11.32
603.603	11.33
603.796	11.31
603.989	11.41
604.181	11.42
604.374	11.34
604.566	11.39
604.759	11.37
604.951	11.38
605.144	11.24
605.336	11.06
605.529	10.97
605.721	11.01
605.914	11.01
606.106	10.98
606.299	10.98
606.491	11
606.683	11.08
606.876	11.24
607.068	11.28
607.26	11.44
607.453	11.48
607.645	11.36
607.837	11.42
608.03	11.19
608.222	10.88
608.414	11.05
608.606	11.21
608.799	11.1
608.991	10.66
609.183	10.53
609.375	10.42
609.567	10.38
609.759	10.46
609.952	10.33
610.144	10.51
610.336	10.66
610.528	10.57
610.72	10.61
610.912	10.65
611.104	11
611.296	11.27
611.488	11.23
611.68	11.14
611.872	10.95
612.064	10.97
612.256	11.09
612.448	11.06
612.64	10.94
612.832	10.89
613.023	10.97
613.215	10.75
613.407	10.75
613.599	10.71
613.791	10.72
613.983	10.89
614.174	11.13
614.366	11.18
614.558	11.38
614.75	11.24
614.941	10.97
615.133	11.2
615.325	11.38
615.516	11.23
615.708	11.17
615.9	11.06
616.091	11
616.283	10.92
616.475	10.55
616.666	10.6
616.858	10.68
617.049	11.14
617.241	10.86
617.432	10.99
617.624	11.13
617.815	11.34
618.007	11.82
618.198	12
618.39	11.62
618.581	12.09
618.773	11.93
618.964	12.22
619.155	12.08
619.347	12.1
619.538	12.25
619.729	12.19
619.921	12.03
620.112	11.75
620.303	11.66
620.494	11.78
620.686	11.54
620.877	11.6
621.068	11.5
621.259	11.39
621.451	11.63
621.642	11.67
621.833	11.77
622.024	11.82
622.215	11.95
622.406	11.65
622.597	11.87
622.788	11.77
622.98	11.41
623.171	11.27
623.362	11.42
623.553	11.48
623.744	11.24
623.935	11.28
624.126	11.17
624.317	11.19
624.508	11.34
624.698	11.32
624.889	11.3
625.08	11.5
625.271	11.54
625.462	11.32
625.653	11.05
625.844	10.83
626.034	10.87
626.225	11.01
626.416	11.13
626.607	11.25
626.798	11.14
626.988	11.11
627.179	10.98
627.37	10.88
627.56	10.91
627.751	10.87
627.942	11.03
628.132	10.91
628.323	11.17
628.514	11.16
628.704	10.93
628.895	11.15
629.085	11.37
629.276	11.51
629.466	11.64
629.657	11.66
629.847	11.9
630.038	11.65
630.228	11.7
630.419	11.34
630.609	11.1
630.8	11.05
630.99	10.98
631.181	11.07
631.371	11.11
631.561	11.21
631.752	11.3
631.942	11.45
632.132	11.85
632.323	11.88
632.513	12.06
632.703	12.1
632.893	12.21
633.084	11.98
633.274	11.69
633.464	11.94
633.654	11.76
633.844	11.71
634.034	11.53
634.225	11.34
634.415	11.27
634.605	10.89
634.795	10.74
634.985	10.92
635.175	11.17
635.365	11.58
635.555	11.35
635.745	11.37
635.935	11.52
636.125	11.29
636.315	11.38
636.505	11.3
636.695	11.49
636.885	11.78
637.075	11.85
637.265	11.84
637.455	11.11
637.644	11.15
637.834	11.4
638.024	11.39
638.214	11.61
638.404	11.76
638.593	11.84
638.783	11.86
638.973	11.98
639.163	12.04
639.352	11.71
639.542	11.74
639.732	11.74
639.921	11.53
640.111	11.65
640.301	11.75
640.49	11.87
640.68	11.64
640.87	11.68
641.059	11.67
641.249	11.17
641.438	11.81
641.628	12.32
641.817	12.01
642.007	12.07
642.196	11.86
642.386	11.4
642.575	10.93
642.764	11.2
642.954	11.32
643.143	10.89
643.333	10.85
643.522	10.14
643.711	9.91
643.901	10.47
644.09	10.26
644.279	9.98
644.469	10.3
644.658	10.93
644.847	10.69
645.036	10.36
645.226	11.18
645.415	11.4
645.604	11.57
645.793	11.61
645.982	11.3
646.171	11.34
646.361	11.29
646.55	11.35
646.739	10.79
646.928	11.15
647.117	11.3
647.306	11.08
647.495	10.94
647.684	10.75
647.873	10.51
648.062	10.74
648.251	10.86
648.44	11.16
648.629	10.96
648.818	11.19
649.007	11.02
649.196	10.9
649.384	10.95
649.573	11.38
649.762	11.31
649.951	11.11
650.14	11.44
650.328	11.77
650.517	11.76
650.706	12.01
650.895	11.97
651.083	11.91
651.272	11.64
651.461	11.69
651.65	11.64
651.838	11.98
652.027	12.45
652.216	12.02
652.404	11.7
652.593	11.55
652.781	11.38
652.97	11.44
653.158	11.21
653.347	11.83
653.535	11.46
653.724	11.67
653.912	11.6
654.101	11.4
654.289	11.48
654.478	11.33
654.666	11.39
654.855	11.52
655.043	11.3
655.231	11.79
655.42	11.85
655.608	11.93
655.796	11.42
655.985	11.83
656.173	11.81
656.361	11.93
656.55	12.26
656.738	12.17
656.926	12.55
657.114	12.6
657.302	12.38
657.491	12.34
657.679	12.55
657.867	12.5
658.055	12.29
658.243	12.57
658.431	12.43
658.619	12.46
658.807	12.77
658.996	12.42
659.184	12.4
659.372	12.73
659.56	12.54
659.748	12.29
659.936	12.44
660.124	12.42
660.311	12.39
660.499	12.26
660.687	12.4
660.875	12.26
661.063	12.37
661.251	12.41
661.439	12.16
661.627	12.18
661.814	12.04
662.002	11.81
662.19	11.84
662.378	11.91
662.565	12.42
662.753	12.16
662.941	12.01
663.129	11.75
663.316	11.74
663.504	11.89
663.692	11.97
663.879	12.02
664.067	12.43
664.254	12.44
664.442	12.39
664.63	11.95
664.817	11.87
665.005	12.18
665.192	12.19
665.38	12.04
665.567	11.56
665.755	11.78
665.942	11.75
666.13	11.5
666.317	11.63
666.504	11.15
666.692	11.09
666.879	10.88
667.067	10.21
667.254	10.6
667.441	10.61
667.629	11.33
667.816	11.44
668.003	11.28
668.19	11.54
668.378	11.66
668.565	12.01
668.752	12.16
668.939	12.85
669.127	13.67
669.314	13.43
669.501	13.88
669.688	13.59
669.875	13.4
670.062	13.92
670.249	13.97
670.436	13.64
670.623	13.87
670.81	13.38
670.997	12.9
671.184	12.16
671.371	12.12
671.558	11.87
671.745	11.75
671.932	11.68
672.119	11.34
672.306	11.23
672.493	11.43
672.68	11.14
672.867	11.61
673.054	11.53
673.24	11.81
673.427	11.57
673.614	11.29
673.801	11.5
673.988	11.55
674.174	11.69
674.361	12.21
674.548	11.7
674.734	11.72
674.921	11.61
675.108	11.67
675.294	11.64
675.481	11.55
675.668	11.97
675.854	12.19
676.041	12.21
676.227	12
676.414	11.2
676.601	11.66
676.787	11.6
676.974	11.46
677.16	11.79
677.347	11.73
677.533	12.09
677.719	11.8
677.906	11.52
678.092	11.7
678.279	11.71
678.465	12
678.651	12.13
678.838	11.78
679.024	11.96
679.21	11.83
679.397	11.95
679.583	12.08
679.769	12.27
679.955	12.44
680.142	12
680.328	12.12
680.514	12.22
680.7	11.91
680.886	12.61
681.073	12.36
681.259	12.31
681.445	12.22
681.631	12.03
681.817	12.18
682.003	12.15
682.189	12.27
682.375	12.44
682.561	12.31
682.747	12.82
682.933	12.92
683.119	13.23
683.305	13.16
683.491	13.29
683.677	13.1
683.863	12.65
684.049	12.37
684.235	12.71
684.42	12.45
684.606	12.63
684.792	12.04
684.978	11.49
685.164	11.93
685.349	11.65
685.535	11.97
685.721	12.08
685.907	12.36
686.092	12.39
686.278	12.83
686.464	12.8
686.649	12.56
686.835	12.73
687.021	12.86
687.206	12.64
687.392	13.42
687.577	13.58
687.763	13.59
687.948	13.59
688.134	13.75
688.319	12.55
688.505	12.69
688.69	12.96
688.876	12.98
689.061	12.93
689.247	12.95
689.432	12.15
689.618	11.77
689.803	11.68
689.988	12.01
690.174	11.75
690.359	12.1
690.544	12.47
690.73	11.88
690.915	11.95
691.1	11.94
691.285	11.8
691.471	12.44
691.656	12.69
691.841	12.63
692.026	11.52
692.211	11.56
692.396	11.53
692.582	11.34
692.767	11.28
692.952	10.83
693.137	10.67
693.322	10.2
693.507	9.51
693.692	9.03
693.877	9.54
694.062	9.74
694.247	9.46
694.432	10.24
694.617	9.77
694.802	10.03
694.987	9.79
695.172	9.72
695.357	10.28
695.541	10.92
695.726	10.93
695.911	11.12
696.096	11.59
696.281	11.99
696.466	11.86
696.65	12.35
696.835	13.15
697.02	13.68
697.204	13.9
697.389	13.76
697.574	13.24
697.759	13.18
697.943	13.06
698.128	13.18
698.312	13.54
698.497	13.4
698.682	13.46
698.866	13.17
699.051	13.13
699.235	13.13
699.42	13.06
699.604	13.35
699.789	13.2
699.973	13.24
700.158	13.29
700.342	12.82
700.527	12.77
700.711	12.34
700.895	11.81
701.08	12.28
701.264	12.06
701.448	12.28
701.633	12.29
701.817	12.38
702.001	12.29
702.186	11.68
702.37	11.97
702.554	10.99
702.738	11.5
702.923	11.43
703.107	11.52
703.291	11.18
703.475	10.48
703.659	10.86
703.843	10.77
704.027	10.64
704.212	10.8
704.396	10.32
704.58	11.36
704.764	11.15
704.948	10.7
705.132	9.79
705.316	10.5
705.5	11.1
705.684	10.41
705.868	10.85
706.052	10.42
706.235	11.04
706.419	10.56
706.603	11.06
706.787	10.65
706.971	11.31
707.155	11.41
707.339	11.08
707.522	11.11
707.706	10.81
707.89	11.17
708.074	11
708.257	10.41
708.441	10.85
708.625	10.26
708.808	10.87
708.992	10.36
709.176	10.14
709.359	9.44
709.543	9.39
709.727	10.08
709.91	10.19
710.094	10.97
710.277	11.81
710.461	12.17
710.644	12.24
710.828	12.28
711.011	13.3
711.195	13.4
711.378	14.19
711.562	14.08
711.745	13.58
711.928	12.46
712.112	11.84
712.295	11.2
712.478	11.16
712.662	11.18
712.845	11.06
713.028	10.06
713.212	10.06
713.395	10.08
713.578	10.6
713.761	10.46
713.945	11.19
714.128	10.84
714.311	10.7
714.494	10.78
714.677	10.83
714.86	11.32
715.043	12.44
715.227	13.09
715.41	12.95
715.593	12.43
715.776	12.55
715.959	13.02
716.142	13.89
716.325	14.48
716.508	14.66
716.691	14.4
716.874	14.44
717.057	14.19
717.239	13.94
717.422	14.46
717.605	14.39
717.788	14.6
717.971	13.84
718.154	13.99
718.337	13.14
718.519	13.75
718.702	13.54
718.885	12.09
719.068	11.77
719.25	11.37
719.433	10.49
719.616	11.29
719.798	10.74
719.981	11.63
720.164	11.11
720.346	10.78
720.529	9.53
720.712	10.43
720.894	10.18
721.077	10.37
721.259	9.78
721.442	9.82
721.624	8.91
721.807	9.74
721.989	8.88
722.172	8.66
722.354	8.67
722.537	8.34
722.719	8.27
722.901	9
723.084	9.38
723.266	9.19
723.448	9.46
723.631	9.12
723.813	8.19
723.995	7.98
724.178	6.97
724.36	7.56
724.542	7.18
724.724	7.49
724.907	8.14
725.089	8.01
725.271	8.63
725.453	8.1
725.635	9.02
725.817	10.39
725.999	9.85
726.181	10.98
726.364	11.27
726.546	12.36
726.728	12.27
726.91	12.03
727.092	12.51
727.274	12.28
727.456	12.45
727.638	10.94
727.819	10.09
728.001	10.3
728.183	10.62
728.365	10.96
728.547	10.48
728.729	10.33
728.911	10.38
729.093	9.33
729.274	9.42
729.456	10.46
729.638	11.7
729.82	11.27
730.001	11.31
730.183	10.77
730.365	11.35
730.546	11.7
730.728	11.43
730.91	11.27
731.091	11.2
731.273	11.15
731.455	10.83
731.636	11.21
731.818	11.5
731.999	11.62
732.181	11.91
732.362	10.5
732.544	9.83
732.725	10.07
732.907	9.02
733.088	9.93
733.27	10.25
733.451	9.53
733.633	9.66
733.814	10.71
733.995	11.89
734.177	11.65
734.358	13.42
734.539	15.07
734.721	15.73
734.902	16.28
735.083	15.95
735.264	16.09
735.446	17.14
735.627	17.15
735.808	16.78
735.989	14.58
736.17	15.94
736.351	14.74
736.533	13.29
736.714	12.55
736.895	13.59
737.076	13.08
737.257	12.06
737.438	9.51
737.619	8.88
737.8	9.12
737.981	10.28
738.162	9.55
738.343	9.57
738.524	9.58
738.705	8.91
738.886	8.14
739.067	8.73
739.247	9.73
739.428	11.9
739.609	12.14
739.79	10.05
739.971	11.1
740.151	10.26
740.332	10.17
740.513	10.17
740.694	11.16
740.874	11.47
741.055	10.93
741.236	10.44
741.417	10.79
741.597	10.56
741.778	12.23
741.958	11.48
742.139	11.52
742.32	11.44
742.5	11.34
742.681	10.07
742.861	8.89
743.042	10.29
743.222	10.59
743.403	9.91
743.583	9.37
743.764	9.29
743.944	7.99
744.124	8.53
744.305	8.55
744.485	8.38
744.666	8.8
744.846	10.35
745.026	9.15
745.207	9.44
745.387	10.21
745.567	9.78
745.747	10.1
745.928	10.73
746.108	11.31
746.288	9.85
746.468	10.03
746.648	11.4
746.829	11.08
747.009	11.09
747.189	10.88
747.369	9.88
747.549	10.2
747.729	8.9
747.909	8.92
748.089	8.99
748.269	11.8
748.449	11.82
748.629	10.78
748.809	11.44
748.989	11.17
749.169	10.61
749.349	10.85
749.529	10.75
749.709	10.27
749.889	12.61
750.068	12.97
750.248	10.3
750.428	10.31
750.608	9.94
750.788	9.26
750.967	10.18
751.147	10.66
751.327	10.99
751.507	11.03
751.686	12.95
751.866	11.26
752.046	10.16
752.225	11.05
752.405	13.22
752.585	14.58
752.764	15.3
752.944	14.3
753.123	13.84
753.303	13.85
753.482	13.94
753.662	13.31
753.841	14.42
754.021	14.46
754.2	14.06
754.38	12.62
754.559	11.89
754.739	11.21
754.918	11.06
755.097	10.44
755.277	9.81
755.456	9.93
755.635	9.4
755.815	9.56
755.994	10.04
756.173	10.21
756.352	9.3
756.532	8.93
756.711	8.44
756.89	9.15
757.069	10.65
757.248	9.7
757.427	9.49
757.607	10.53
757.786	8.73
757.965	7.97
758.144	8.56
758.323	7.86
758.502	8.79
758.681	7.64
758.86	7.27
759.039	6.77
759.218	7.33
759.397	8.13
759.576	7.59
759.755	8.42
759.934	8.92
760.113	9.81
760.291	11.2
760.47	9.87
760.649	11.34
760.828	11.84
761.007	11.99
761.186	12.65
761.364	12.57
761.543	11.74
761.722	10.53
761.901	11.66
762.079	11.48
762.258	10.61
762.437	11.15
762.615	10.69
762.794	10.87
762.972	11.35
763.151	10.82
763.33	10.74
763.508	11.63
763.687	12.91
763.865	12.28
764.044	12.22
764.222	12.9
764.401	13.47
764.579	14.04
764.758	14.09
764.936	13.59
765.114	13.67
765.293	13.64
765.471	13.94
765.65	13.08
765.828	12.96
766.006	12.48
766.184	12.04
766.363	10.73
766.541	9.22
766.719	9.03
766.898	8.61
767.076	8.99
767.254	7.66
767.432	7.3
767.61	6.72
767.788	5.74
767.967	5.35
768.145	3.79
768.323	4.85
768.501	5.8
768.679	4.72
768.857	4.48
769.035	3.25
769.213	4.36
769.391	2.45
769.569	2.24
769.747	2.92
769.925	4.48
770.103	5.68
770.281	4.78
770.459	6.56
770.636	5.47
770.814	5.26
770.992	5.75
771.17	5.82
771.348	7.15
771.525	6.78
771.703	6.26
771.881	5.51
772.059	6.57
772.236	7.09
772.414	7.66
772.592	8.48
772.769	7.56
772.947	7.85
773.125	9.55
773.302	9.61
773.48	9.85
773.657	10.77
773.835	10.84
774.013	10.18
774.19	9.06
774.368	9.79
774.545	10.97
774.723	13.08
774.9	14.93
775.077	14.13
775.255	14.47
775.432	15.03
775.61	14.13
775.787	11.92
775.964	12.14
776.142	12.31
776.319	9.85
776.496	9.63
776.674	8.05
776.851	6.06
777.028	6.67
777.205	6.03
777.382	7.32
777.56	8.76
777.737	9.76
777.914	10.6
778.091	8.48
778.268	8.33
778.445	7.59
778.622	8.24
778.8	8.12
778.977	7.49
779.154	8.18
779.331	7.6
779.508	6.36
779.685	6.88
779.862	6.4
780.038	7.84
780.215	8.85
780.392	10.11
780.569	9.85
780.746	9.68
780.923	11.16
781.1	11.83
781.277	12.35
781.453	13.16
781.63	11.24
781.807	9.18
781.984	8.2
782.16	4.81
782.337	0.51
782.514	2.82
782.691	3.76
782.867	-0.36
783.044	-2.75
783.221	-6.15
783.397	-7.05
783.574	-6.35
783.75	-5.91
783.927	-3.2
784.103	-0.32
784.28	1.97
784.456	1.18
784.633	0.89
784.809	0.29
784.986	3
785.162	5.23
785.339	2.35
785.515	1.69
785.692	0.26
785.868	0.76
786.044	2.62
786.221	4.39
786.397	1.67
786.573	3.07
786.749	6.91
786.926	6.19
787.102	6.12
787.278	8.09
787.454	7.32
787.631	9.14
787.807	9.76
787.983	9.08
788.159	7.76
788.335	8.63
788.511	9.42
788.687	9.45
788.863	7.45
789.039	8.07
789.216	9.31
789.392	10.54
789.568	11.9
789.744	12.67
789.919	12.39
790.095	12.39
790.271	11.36
790.447	8.55
790.623	5.73
790.799	9.27
790.975	10.83
791.151	10.31
791.327	9.95
791.502	9.2
791.678	5.63
791.854	4.65
792.03	6.01
792.205	8.49
792.381	12.83
792.557	15.31
792.733	13.74
792.908	12.36
793.084	14.27
793.259	14.87
793.435	13.72
793.611	14.76
793.786	13.44
793.962	10.34
794.137	8.15
794.313	3.18
794.488	1.18
794.664	-0.88
794.839	-1.3
795.015	-3.91
795.19	-3.37
795.366	-2.31
795.541	-3.63
795.716	-1.64
795.892	1.27
796.067	3.4
796.242	5.01
796.418	4.91
796.593	4.34
796.768	5.8
796.944	6.84
797.119	6.65
797.294	6.39
797.469	9.56
797.644	12.85
797.82	13.95
797.995	11.73
798.17	12.3
798.345	12.58
798.52	12.79
798.695	12.1
798.87	10.31
799.045	8.71
799.22	9.04
799.395	7.79
799.57	5.51
799.745	2.49
799.92	4.37
800.095	1.04
800.27	3.58
800.445	3.75
800.62	0.83
800.795	-0.62
800.97	0.16
801.145	-0.98
801.319	-3.81
801.494	-7.19
801.669	-5.43
801.844	-7
802.018	-1.26
802.193	-5.19
802.368	-3.34
802.543	2.91
802.717	5.55
802.892	6.77
803.067	6.79
803.241	11.37
803.416	12.94
803.59	13.47
803.765	13.51
803.94	13.51
804.114	12.12
804.289	5.91
804.463	4.74
804.638	2.65
804.812	1.33
804.986	0.53
805.161	-2.51
805.335	-3.99
805.51	-5.63
805.684	-5.59
805.858	-12.53
806.033	-13.37
806.207	-6.86
806.381	-10.58
806.556	-10.1
806.73	-8.15
806.904	-5.64
807.078	-8.83
807.253	-9.08
807.427	-11.83
807.601	-13.15
807.775	-12.52
807.949	-9.94
808.123	-10.87
808.298	-8.75
808.472	-4.01
808.646	-3.17
808.82	-0.94
808.994	0.76
809.168	-1.31
809.342	0.3
809.516	0.84
809.69	3.5
809.864	-1.11
810.038	0.17
810.212	-2.08
810.385	-9.07
810.559	-11.5
810.733	-16.45
810.907	-17.69
811.081	-14.21
811.255	-11
811.428	-13.36
811.602	-18.29
811.776	-8.81
811.95	-13.49
812.123	-13.49
812.297	-13.08
812.471	-14.5
812.644	-15.58
812.818	-13.2
812.992	-17.94
813.165	-20.52
813.339	-14.8
813.512	-8.85
813.686	-14.75
813.86	-11.4
814.033	-9.33
814.207	-1.54
814.38	1.06
814.554	5.76
814.727	9.1
814.9	11.72
815.074	13.86
815.247	10.59
815.421	8.51
815.594	15.32
815.767	15.99
815.941	17.1
816.114	11.79
816.287	9.46
816.46	9.26
816.634	5.94
816.807	6
816.98	8.21
817.153	12.21
817.327	8.91
817.5	2.17
817.673	1.06
817.846	-1.83
818.019	1.91
818.192	1.46
818.365	3.98
818.538	0.64
818.711	0.13
818.884	-7
819.057	-7.82
819.23	-7.83
819.403	-9.56
819.576	-7.9
819.749	-7.03
819.922	-4.1
820.095	0.1
820.268	-1.13
820.441	2.01
820.614	1.93
820.786	4.89
820.959	6.51
821.132	9.44
821.305	12.43
821.477	14.61
821.65	15.19
821.823	15.41
821.996	14.82
822.168	14.85
822.341	15.35
822.514	15.56
822.686	15.91
822.859	15.74
823.031	15.56
823.204	15.24
823.376	14.31
823.549	14.47
823.722	14.41
823.894	14.36
824.067	14.59
824.239	13.37
824.411	14.04
824.584	14.26
824.756	13.99
824.929	13.63
825.101	12.82
825.273	12.15
825.446	11.62
825.618	10.91
825.79	11.27
825.963	9.58
826.135	12.29
826.307	12.08
826.479	12.25
826.652	12.17
826.824	13.04
826.996	14
827.168	14.32
827.34	13.61
827.512	13.48
827.684	13.25
827.856	14.35
828.029	14.54
828.201	13.09
828.373	13.17
828.545	11.48
828.717	10.44
828.889	10.39
829.061	10.76
829.232	11.3
829.404	10.65
829.576	9.42
829.748	9.94
829.92	7.03
830.092	6.32
830.264	2.96
830.436	4.44
830.607	3.62
830.779	4
830.951	3.66
831.123	0.13
831.294	-1.12
831.466	3.27
831.638	1.69
831.809	-0.89
831.981	-1.29
832.153	-0.68
832.324	-3.82
832.496	-3.26
832.667	-3.65
832.839	-6.37
833.011	-1.58
833.182	-2.67
833.354	-5.05
833.525	-2.77
833.697	-1.61
833.868	0.47
834.039	0.62
834.211	2.8
834.382	3.56
834.554	3.21
834.725	6.09
834.896	7.33
835.068	7.83
835.239	7.95
835.41	6.2
835.581	6.75
835.753	7.31
835.924	7.81
836.095	10.09
836.266	9.34
836.438	6.32
836.609	5.68
836.78	0.82
836.951	0.67
837.122	2.19
837.293	3.53
837.464	2.64
837.635	-1.53
837.806	-5.6
837.977	-10.74
838.148	-11.53
838.319	-8
838.49	-13.57
838.661	-2.32
838.832	-8.45
839.003	-16.39
839.174	-17.06
839.345	-13.83
839.516	-7.87
839.687	-7.35
839.857	6.72
840.028	2.67
840.199	-1.13
840.37	-4.9
840.54	-15.91
840.711	-14.55
840.882	-10.58
841.053	-16.93
841.223	-20.1
841.394	-19.84
841.564	-14.64
841.735	-15.38
841.906	-13.92
842.076	-17.18
842.247	-15.29
842.417	-14.46
842.588	-6.93
842.758	-13.4
842.929	-13.02
843.099	-11.57
843.27	-14.77
843.44	-10.47
843.611	-24.4
843.781	-31.84
843.951	-27.52
844.122	-23.34
844.292	-23.68
844.462	-35.43
844.633	-29.76
844.803	-37.66
844.973	-36.97
845.144	-28.35
845.314	-27.37
845.484	-27.82
845.654	-22.84
845.824	-13.3
845.995	-21.26
846.165	-21.88
846.335	-12.77
846.505	-21.58
846.675	-13.91
846.845	-20.19
847.015	-30.59
847.185	-31.04
847.355	-16.94
847.525	-25.08
847.695	-34.34
847.865	-53.83
848.035	-47.37
848.205	-28.78
848.375	-13.05
848.545	-15.08
848.715	-7.78
848.884	-21.97
849.054	-20.86
849.224	-24.32
849.394	-14.7
849.564	2.42
849.733	16.88
849.903	9.5
850.073	1.18
850.243	-7
850.412	-2.57
850.582	4.94
850.752	19.75
850.921	15.9
851.091	9.63
851.26	1.4
851.43	-19.16
851.599	-14.98
851.769	-15.73
851.939	-47.01
852.108	-64.07
852.278	-82.08
852.447	-106.11
852.616	-114.75
852.786	-101.16
852.955	-80.82
853.125	-68.77
853.294	-56.92
853.463	-112.4
853.633	-127.01
853.802	-60.89
853.971	-54.84
854.141	-55.34
854.31	-30.49
854.479	-43.71
854.648	-55.31
854.818	-24.64
854.987	-32.12
855.156	-26
855.325	-18.12
855.494	-25.57
855.663	-57.66
855.832	-53.58
856.001	-36.45
856.171	-64.3
856.34	-32.83
856.509	-25.91
856.678	-35.35
856.847	-27.12
857.016	-40.2
857.185	-28.76
857.353	-17.27
857.522	-8.51
857.691	-1.09
857.86	-5.77
858.029	-13.47
858.198	-21.68
858.367	-17.64
858.535	-19.44
858.704	-27.08
858.873	-28.69
859.042	-28.56
859.21	-36.91
859.379	-42.49
859.548	-56.84
859.717	-39.46
859.885	-46.76
860.054	-67.76
860.222	-121.94
860.391	-204.67
860.56	-156.65
860.728	-163.41
860.897	-305.6
861.065	-472.75
861.234	-141.2
861.402	-179.01
861.571	-178.3
861.739	-117.52
861.908	-105.82
862.076	-126.81
862.244	-96.64
862.413	-116.39
862.581	-82.61
862.749	-75.59
862.918	-57.41
863.086	-98.12
863.254	-68.65
863.423	-103.21
863.591	-128.25
863.759	-102.94
863.927	-120.72
864.096	-118.31
864.264	-92.93
864.432	-122.65
864.6	-170.79
864.768	-148.95
864.936	-90.5
865.104	-102.38
865.272	-63.55
865.44	-43.68
865.608	-43.89
865.776	-16.58
865.944	-15.7
866.112	-11.11
866.28	-8.01
866.448	9.43
866.616	-1.54
866.784	-5.45
866.952	-4.15
867.12	-9.47
867.288	-17.66
867.455	-28.59
867.623	-65.4
867.791	-67.26
867.959	-65.67
868.127	-49.38
868.294	-81.74
868.462	-75.91
868.63	-114.25
868.797	-119.96
868.965	-200.57
869.133	-371.33
869.3	-197.12
869.468	-103.98
869.636	-106.69
869.803	-127.95
869.971	-165.61
870.138	-139.6
870.306	-118.3
870.473	-68.04
870.641	-78.5
870.808	-60.74
870.975	-41.69
871.143	-41.8
871.31	-32.74
871.478	-31.29
871.645	-33.77
871.812	-20.21
871.98	7.88
872.147	16.08
872.314	2.53
872.482	3.01
872.649	2.82
872.816	-6.76
872.983	-7.7
873.15	-20.14
873.318	-30.02
873.485	-19.62
873.652	-14.42
873.819	-34.39
873.986	-51.16
874.153	-65.96
874.32	-46.74
874.487	-65.1
874.654	-70.93
874.821	-63.73
874.988	-69.65
875.155	-39.91
875.322	-42.85
875.489	-52.68
875.656	-33.97
875.823	-35.83
875.99	-37.32
876.157	-32.31
876.324	-20.87
876.49	-11.4
876.657	-16.5
876.824	-8.86
876.991	-28.36
877.157	-21.53
877.324	-31.05
877.491	-57.03
877.658	-60.35
877.824	-58.13
877.991	-71.98
878.157	-84.77
878.324	-120.19
878.491	-165.15
878.657	-210.42
878.824	-175.92
878.99	-172.28
879.157	-180.2
879.323	-299.14
879.49	-243.47
879.656	-182.36
879.823	-187.07
879.989	-156.73
880.156	-121.64
880.322	-88.45
880.488	-84.63
880.655	-70.27
880.821	-67.41
880.987	-56.71
881.154	-33.31
881.32	-35.25
881.486	-30.5
881.652	-17.32
881.819	-16.87
881.985	-19.9
882.151	-19.71
882.317	-8.19
882.483	-4.03
882.649	-6.12
882.816	0.24
882.982	0.11
883.148	1.68
883.314	2.89
883.48	1.58
883.646	2.61
883.812	6.16
883.978	7.24
884.144	6.1
884.31	4.43
884.476	7.62
884.642	6.38
884.807	5.09
884.973	5.8
885.139	6.16
885.305	8.96
885.471	8.38
885.637	6.16
885.802	7.23
885.968	6.4
886.134	0.14
886.3	3.01
886.465	2.25
886.631	2.95
886.797	-0.49
886.962	-5.04
887.128	-10.76
887.293	-15.06
887.459	-23.38
887.625	-22.99
887.79	-32.81
887.956	-19.47
888.121	-31.29
888.287	-38.15
888.452	-49.88
888.618	-45.08
888.783	-46.52
