Data from LC_243_Reflection_1.txt Node
Date: Thu Nov 19 22:35:52 EST 2015
User: robert
Spectrometer: USB4E03001
Autoset integration time: false
Trigger mode: 4
Integration Time (sec): 1.000000E-1
Scans to average: 15
Electric dark correction enabled: true
Nonlinearity correction enabled: false
Boxcar width: 5
Stray light correction enabled: false
XAxis mode: Wavelengths
Stop averaging: false
Number of Pixels in Spectrum: 3648
>>>>>Begin Spectral Data<<<<<
177.566	40.54
177.785	21.88
178.005	33.26
178.225	17.41
178.445	23.59
178.665	34.94
178.885	58.49
179.105	-300.6
179.324	-333.14
179.544	-353.78
179.764	-159.23
179.984	-109.59
180.204	-149.34
180.423	-51.2
180.643	-10.61
180.863	-3.49
181.083	-50.6
181.302	-61.1
181.522	-5.99
181.742	8.27
181.961	36.34
182.181	64.97
182.401	105.39
182.621	67.33
182.84	-28.66
183.06	-29.7
183.279	-93.58
183.499	-41.37
183.719	-272.03
183.938	-1740.74
184.158	1043.81
184.377	1005.11
184.597	-645.86
184.816	8666.98
185.036	411.21
185.256	-3832.78
185.475	-210.77
185.695	-81.1
185.914	-68.63
186.134	-9.21
186.353	29.94
186.572	4.51
186.792	3.88
187.011	-1212.85
187.231	-273.08
187.45	-506.17
187.67	-70.12
187.889	-75.61
188.108	-33.91
188.328	-15.52
188.547	-8.36
188.766	-29.38
188.986	-176.88
189.205	2667.65
189.424	4.82
189.644	42.24
189.863	38.4
190.082	3.85
190.302	-6.6
190.521	-4.64
190.74	-16.73
190.959	8.36
191.178	18.42
191.398	-37.21
191.617	-32.05
191.836	-93.65
192.055	-4.51
192.274	22.82
192.494	85.31
192.713	9.1
192.932	21.75
193.151	34.4
193.37	19.71
193.589	3.45
193.808	37.4
194.027	37.69
194.246	20.88
194.465	12.28
194.685	-7.98
194.904	-0.18
195.123	24.4
195.342	0.91
195.561	1.21
195.78	17.73
195.999	37.83
196.218	33.83
196.436	16.79
196.655	21.18
196.874	26.82
197.093	3.14
197.312	-38.49
197.531	-13.47
197.75	39.48
197.969	63.59
198.188	-11.91
198.407	106
198.625	70.66
198.844	35.56
199.063	-185.42
199.282	21.04
199.501	-22.6
199.719	41.92
199.938	115.55
200.157	300.19
200.376	266.62
200.594	-1151.79
200.813	-1037.97
201.032	-609.23
201.251	-551.76
201.469	-691.86
201.688	-69.87
201.907	-58.91
202.125	-418.58
202.344	-60.42
202.563	-146.8
202.781	-209.91
203	-156.9
203.218	-41.92
203.437	-96.18
203.656	-60.32
203.874	-24.77
204.093	-269.09
204.311	-80.27
204.53	-46.46
204.748	-64.11
204.967	-30.46
205.185	-53.92
205.404	-126.06
205.622	-131.38
205.841	-17.97
206.059	-47.08
206.278	-126.18
206.496	-63.05
206.715	-102.3
206.933	-22.79
207.151	34.61
207.37	-25.36
207.588	30.83
207.806	149.38
208.025	99.49
208.243	29.91
208.461	2.18
208.68	98.21
208.898	53.12
209.116	67.68
209.335	20.39
209.553	86.26
209.771	-582.35
209.989	-121.03
210.208	393.86
210.426	855.45
210.644	-147.55
210.862	-69.26
211.081	-31.8
211.299	-37.5
211.517	-8.44
211.735	32.74
211.953	14.92
212.171	9.62
212.39	34.29
212.608	38.71
212.826	65.27
213.044	54.8
213.262	24.64
213.48	37.92
213.698	22.49
213.916	26.22
214.134	-39.55
214.352	-105.59
214.57	-94.22
214.788	26.25
215.006	-1.11
215.224	-134.16
215.442	-392.49
215.66	-32.67
215.878	-279.77
216.096	-332.32
216.314	-512.12
216.532	-431.16
216.75	-640.6
216.968	273.84
217.185	1226.58
217.403	2461.3
217.621	5010.44
217.839	-389.19
218.057	-249.77
218.275	-70.74
218.492	-98.44
218.71	-82.59
218.928	-123.24
219.146	-162.94
219.363	-57.59
219.581	-84.54
219.799	-59.04
220.017	-36.82
220.234	-24.49
220.452	-2.12
220.67	-17.21
220.887	7.96
221.105	35.3
221.323	54.6
221.54	47.08
221.758	41.16
221.976	26.73
222.193	31.54
222.411	19.25
222.629	17.97
222.846	15.45
223.064	19.53
223.281	13.49
223.499	-12.19
223.716	-5.23
223.934	5.15
224.151	9.41
224.369	23.33
224.586	5.49
224.804	14.64
225.021	16.63
225.239	16.29
225.456	-5.44
225.674	-12.32
225.891	-4.8
226.108	-2.28
226.326	-12.09
226.543	-18.48
226.76	-23.88
226.978	-9.56
227.195	-10.66
227.413	-15.39
227.63	-17.94
227.847	-8.5
228.064	-2
228.282	2.61
228.499	3.4
228.716	5.54
228.934	6.31
229.151	6.37
229.368	6.54
229.585	7.24
229.802	8.7
230.02	9.25
230.237	9.4
230.454	7.54
230.671	4.54
230.888	3.26
231.105	1.95
231.323	1.82
231.54	-0.06
231.757	-1.65
231.974	-1.17
232.191	-1.72
232.408	-2.76
232.625	0.05
232.842	5.08
233.059	8.65
233.276	11.16
233.493	13
233.71	12.39
233.927	15.17
234.144	15.82
234.361	10.44
234.578	13.21
234.795	10.86
235.012	12.04
235.229	2.5
235.446	5.13
235.663	1.34
235.879	1.01
236.096	-3.45
236.313	-9.29
236.53	-4.54
236.747	-2.41
236.964	-5.13
237.181	-3.27
237.397	-7.31
237.614	-2.83
237.831	-1.09
238.048	4.87
238.264	3.08
238.481	7.09
238.698	8.84
238.915	8.19
239.131	8.36
239.348	6.79
239.565	8
239.781	9.96
239.998	10.71
240.215	7.7
240.431	6.53
240.648	9.2
240.865	7.28
241.081	8.06
241.298	8.8
241.514	9.56
241.731	10.87
241.947	11.3
242.164	9.85
242.38	10.83
242.597	9.49
242.814	9.4
243.03	8.23
243.246	10.13
243.463	10.2
243.679	8.38
243.896	8.56
244.112	8.07
244.329	7.07
244.545	8.8
244.762	6.57
244.978	6
245.194	6.59
245.411	8.67
245.627	8.1
245.843	8.3
246.06	10.77
246.276	10.76
246.492	11.83
246.709	11.58
246.925	10.79
247.141	11.01
247.357	11.28
247.574	11.33
247.79	10.52
248.006	11.09
248.222	10.84
248.439	9.66
248.655	9.14
248.871	8.24
249.087	8.32
249.303	8.05
249.519	8.6
249.736	9.52
249.952	9.2
250.168	8.68
250.384	5.28
250.6	6.46
250.816	6.79
251.032	5.66
251.248	5.87
251.464	5.27
251.68	3.8
251.896	4.04
252.112	4.7
252.328	4.71
252.544	4.23
252.76	7.12
252.976	7.92
253.192	8.95
253.408	10.48
253.624	12.51
253.84	12.82
254.056	13.06
254.272	12.07
254.487	10.17
254.703	10.02
254.919	11.59
255.135	11.01
255.351	7.98
255.567	9.08
255.782	5.62
255.998	3.13
256.214	1.97
256.43	2.81
256.646	5.95
256.861	8.06
257.077	7.07
257.293	8.35
257.508	8.62
257.724	8.72
257.94	7.23
258.155	9.02
258.371	8.01
258.587	8.6
258.802	8.75
259.018	7.64
259.234	7.11
259.449	7.82
259.665	6.98
259.88	6.34
260.096	6.98
260.312	6.35
260.527	6.41
260.743	6.82
260.958	6.9
261.174	7.56
261.389	7.8
261.605	8.71
261.82	8.25
262.036	8.27
262.251	8.41
262.466	9.36
262.682	10.15
262.897	11.06
263.113	10.33
263.328	11.79
263.543	11.92
263.759	10.92
263.974	9.85
264.189	11.12
264.405	11.19
264.62	12.15
264.835	10.05
265.051	10.39
265.266	9.9
265.481	10.9
265.696	9.48
265.912	8.18
266.127	9.38
266.342	8.3
266.557	7.23
266.773	7.47
266.988	6.25
267.203	5.49
267.418	5.53
267.633	3.75
267.848	2.44
268.064	1.85
268.279	2.16
268.494	2.15
268.709	3.01
268.924	2.27
269.139	3.21
269.354	4.56
269.569	4.81
269.784	4.03
269.999	4.05
270.214	5.47
270.429	6.6
270.644	6.85
270.859	6.37
271.074	5.46
271.289	6.59
271.504	6.38
271.719	6.46
271.934	6.96
272.149	8.03
272.363	9.4
272.578	9.41
272.793	9.35
273.008	7.94
273.223	8.46
273.438	9.4
273.653	8.65
273.867	7.92
274.082	6.28
274.297	5.17
274.512	4.73
274.726	4.93
274.941	4.78
275.156	2.89
275.371	3.94
275.585	3.67
275.8	3.56
276.015	4.39
276.229	4.96
276.444	5.98
276.659	7.08
276.873	6.76
277.088	6.37
277.302	5.93
277.517	8.01
277.732	8.04
277.946	7.7
278.161	6.82
278.375	6.75
278.59	6.51
278.804	5.82
279.019	6.35
279.233	7.07
279.448	6.08
279.662	6.89
279.877	6.33
280.091	6.03
280.306	4.59
280.52	4.9
280.735	4.72
280.949	4.63
281.163	4.79
281.378	4.99
281.592	5.66
281.806	5.26
282.021	5.4
282.235	4.16
282.449	4.19
282.664	5.21
282.878	5.91
283.092	6.4
283.307	7.23
283.521	7.94
283.735	7.24
283.949	6.73
284.164	7.89
284.378	6.82
284.592	7.77
284.806	8.61
285.02	8.5
285.234	8.3
285.449	7.36
285.663	7.29
285.877	8.06
286.091	7.89
286.305	7.13
286.519	7.6
286.733	8.42
286.947	8.34
287.161	7.38
287.375	7.78
287.589	7.72
287.803	8.25
288.017	8.22
288.231	8.23
288.445	8.59
288.659	9.33
288.873	7.85
289.087	7.23
289.301	7.84
289.515	8.45
289.729	7.68
289.943	8.09
290.157	8.49
290.371	7.93
290.584	6.92
290.798	6.99
291.012	6.81
291.226	7.29
291.44	8.52
291.654	8.02
291.867	7.76
292.081	7.97
292.295	6.97
292.509	5.99
292.722	7.6
292.936	7
293.15	6.4
293.364	6.67
293.577	7.03
293.791	5.66
294.005	5.5
294.218	6.06
294.432	6.91
294.645	7.75
294.859	8.45
295.073	6.92
295.286	7.92
295.5	8.14
295.713	8.22
295.927	8.29
296.14	8.34
296.354	8.09
296.568	8.41
296.781	8.52
296.994	8.59
297.208	8.34
297.421	9.19
297.635	9.25
297.848	9.75
298.062	10.03
298.275	9.78
298.489	10.21
298.702	10.87
298.915	10.86
299.129	10.97
299.342	10.59
299.555	10.66
299.769	10.01
299.982	9.44
300.195	9.4
300.409	9.52
300.622	9.26
300.835	9.27
301.048	9.43
301.262	9.66
301.475	8.94
301.688	8.84
301.901	9.12
302.115	9.51
302.328	10.53
302.541	8.87
302.754	7.75
302.967	8.1
303.18	7.82
303.393	6.6
303.607	6.47
303.82	6.45
304.033	6.24
304.246	6.97
304.459	6.82
304.672	7.05
304.885	9.1
305.098	9.77
305.311	8.93
305.524	8.54
305.737	8.71
305.95	7.93
306.163	7.37
306.376	7.22
306.589	5.9
306.802	5.65
307.015	4.93
307.228	4.21
307.44	3.99
307.653	6.01
307.866	6.81
308.079	8.13
308.292	8.71
308.505	9.69
308.718	9.35
308.93	9.7
309.143	9.89
309.356	8.53
309.569	7.95
309.781	7.66
309.994	6.73
310.207	6.37
310.42	7.11
310.632	6.07
310.845	6
311.058	7.83
311.27	7.36
311.483	7.18
311.696	8.69
311.908	8.78
312.121	8.86
312.333	8.74
312.546	8.54
312.759	7.17
312.971	8.3
313.184	7.99
313.396	7.08
313.609	6.99
313.821	6.77
314.034	7.01
314.246	6.5
314.459	6.96
314.671	8.07
314.884	8.34
315.096	8.75
315.309	8.71
315.521	9.08
315.733	8.49
315.946	9.59
316.158	10.22
316.371	9.47
316.583	10.28
316.795	9.56
317.008	7.66
317.22	7.08
317.432	7.26
317.644	7.21
317.857	6.52
318.069	6.51
318.281	6.06
318.494	6.71
318.706	6.12
318.918	5.92
319.13	6.93
319.342	6.77
319.555	6.65
319.767	6.46
319.979	5.09
320.191	5.46
320.403	5.77
320.615	5.74
320.827	5.22
321.039	4.8
321.252	5.05
321.464	5.91
321.676	7.33
321.888	7.29
322.1	7.84
322.312	8.65
322.524	9.19
322.736	8.03
322.948	8.3
323.16	7.97
323.372	8.12
323.584	7.76
323.796	5.34
324.007	5.35
324.219	6.24
324.431	5.33
324.643	5.18
324.855	5.72
325.067	6.5
325.279	6.6
325.491	7.35
325.702	7.66
325.914	7.78
326.126	9.01
326.338	9.28
326.55	9.05
326.761	9.41
326.973	9.61
327.185	8.6
327.396	9.5
327.608	9.5
327.82	8.33
328.032	7.64
328.243	7.46
328.455	8.37
328.666	8.5
328.878	8.41
329.09	8.64
329.301	9.11
329.513	9.9
329.725	8.61
329.936	7.67
330.148	8.74
330.359	9.94
330.571	10.56
330.782	9.16
330.994	9.17
331.205	8.75
331.417	9.35
331.628	8.76
331.84	7.93
332.051	7.95
332.262	8.86
332.474	9.38
332.685	9.31
332.897	9.63
333.108	9.78
333.319	9.98
333.531	10.44
333.742	9.68
333.953	10.48
334.165	11.35
334.376	12.08
334.587	11.57
334.799	9.77
335.01	8.95
335.221	8.46
335.432	9.31
335.644	8.26
335.855	8.13
336.066	8.81
336.277	8.25
336.488	7.23
336.7	6.52
336.911	6.6
337.122	7.99
337.333	8.77
337.544	8.02
337.755	7.14
337.966	7.13
338.177	7.23
338.388	7.21
338.599	6.82
338.811	6.99
339.022	6.88
339.233	6.12
339.444	5.72
339.655	5.38
339.866	6.13
340.076	6.54
340.287	7.82
340.498	7.23
340.709	6.7
340.92	6.98
341.131	7.24
341.342	7.85
341.553	8.95
341.764	7.95
341.975	8.24
342.185	7.68
342.396	7.4
342.607	7.44
342.818	8.1
343.029	8.17
343.239	8.62
343.45	8.58
343.661	8.24
343.872	7.42
344.082	7.82
344.293	8.12
344.504	9.03
344.714	9.18
344.925	8.95
345.136	9.26
345.346	8.6
345.557	8.46
345.768	8.39
345.978	8.34
346.189	8.23
346.399	8.49
346.61	8.24
346.821	7.55
347.031	7.62
347.242	7.61
347.452	7.7
347.663	8.35
347.873	8.59
348.084	8.7
348.294	8.91
348.504	9.9
348.715	10.26
348.925	10.57
349.136	11.17
349.346	10.44
349.557	10.03
349.767	9.72
349.977	8.9
350.188	7.83
350.398	7.31
350.608	7.34
350.819	7.42
351.029	7.44
351.239	7.44
351.449	7.28
351.66	7.5
351.87	7.04
352.08	6.73
352.29	7.78
352.501	8.06
352.711	8.63
352.921	8.7
353.131	7.98
353.341	6.96
353.552	6.48
353.762	5.94
353.972	6.13
354.182	6.14
354.392	6.14
354.602	5.22
354.812	5.58
355.022	5.34
355.232	5.36
355.442	5.59
355.652	6
355.862	6.31
356.072	6.46
356.282	7.55
356.492	7.54
356.702	7.44
356.912	8.12
357.122	8.05
357.332	7.92
357.542	7.56
357.752	7.06
357.962	7.11
358.171	6.87
358.381	7.59
358.591	6.54
358.801	6.72
359.011	6.72
359.221	6.91
359.43	6.88
359.64	7.5
359.85	7.96
360.06	8.39
360.269	8.37
360.479	8.27
360.689	7.63
360.899	7.58
361.108	7.69
361.318	8
361.528	8.04
361.737	8.01
361.947	7.43
362.156	7.16
362.366	7.33
362.576	7.54
362.785	7.66
362.995	7.39
363.204	7.68
363.414	7.22
363.623	7.06
363.833	6.35
364.042	6.28
364.252	6.75
364.461	6.4
364.671	6.05
364.88	6.21
365.09	6.48
365.299	7.21
365.509	7.22
365.718	7.38
365.927	7.51
366.137	7.49
366.346	7.84
366.555	7.35
366.765	7.74
366.974	7.29
367.183	6.8
367.393	5.79
367.602	6
367.811	6
368.021	6.45
368.23	5.57
368.439	5.63
368.648	5.14
368.857	5.63
369.067	5.17
369.276	5.91
369.485	6.05
369.694	6.42
369.903	5.58
370.112	5.27
370.321	4.52
370.531	4.92
370.74	4.7
370.949	4.99
371.158	4.61
371.367	5.43
371.576	5.35
371.785	5.15
371.994	5.03
372.203	4.93
372.412	5.49
372.621	5.55
372.83	5.83
373.039	6.29
373.248	6.77
373.457	7.15
373.666	6.75
373.874	6.6
374.083	6.46
374.292	6.66
374.501	7.17
374.71	6.87
374.919	7.21
375.128	7.16
375.336	6.84
375.545	6.15
375.754	5.88
375.963	5.72
376.171	5.75
376.38	6.06
376.589	5.95
376.798	5.43
377.006	5.41
377.215	5.5
377.424	5.18
377.632	5.72
377.841	5.5
378.05	5.58
378.258	5.73
378.467	5.91
378.675	5.75
378.884	5.96
379.093	6.33
379.301	6.43
379.51	6.63
379.718	6.68
379.927	6.18
380.135	6.38
380.344	6.08
380.552	6.51
380.761	6.22
380.969	6.45
381.177	6.56
381.386	7.18
381.594	7.15
381.803	6.84
382.011	7.4
382.219	7.32
382.428	7.47
382.636	7.41
382.845	7.07
383.053	7.11
383.261	7
383.469	6.97
383.678	6.29
383.886	6.24
384.094	6.34
384.302	5.89
384.511	6.22
384.719	6
384.927	6.08
385.135	6.21
385.343	6.11
385.552	6.16
385.76	5.93
385.968	5.88
386.176	5.72
386.384	5.13
386.592	5.36
386.8	5.27
387.008	5.39
387.216	5.3
387.424	5.07
387.633	5.35
387.841	4.93
388.049	4.83
388.257	4.9
388.465	4.94
388.672	5.45
388.88	4.91
389.088	5.02
389.296	5.19
389.504	4.83
389.712	5
389.92	4.76
390.128	5.01
390.336	5.11
390.544	4.81
390.751	4.82
390.959	4.66
391.167	5.04
391.375	4.85
391.583	4.43
391.79	4.68
391.998	4.57
392.206	4.74
392.414	5.18
392.621	5.34
392.829	5.64
393.037	5.81
393.244	5.9
393.452	5.83
393.66	5.79
393.867	6.13
394.075	6.48
394.283	6.34
394.49	6.16
394.698	5.8
394.905	5.65
395.113	5.8
395.32	5.71
395.528	5.79
395.735	6.15
395.943	6.41
396.15	6.11
396.358	5.78
396.565	5.92
396.773	6.01
396.98	6.21
397.188	6.26
397.395	6
397.602	5.56
397.81	5.18
398.017	4.7
398.225	4.4
398.432	4.4
398.639	4.56
398.847	4.53
399.054	4.51
399.261	4.1
399.468	4.32
399.676	4.2
399.883	4.53
400.09	4.94
400.297	5.14
400.505	5.35
400.712	5.58
400.919	5.59
401.126	5.59
401.333	5.63
401.54	5.86
401.748	5.8
401.955	5.98
402.162	6
402.369	5.92
402.576	5.95
402.783	5.85
402.99	5.98
403.197	6.14
403.404	6.09
403.611	6.13
403.818	5.96
404.025	6.07
404.232	5.82
404.439	5.97
404.646	6.04
404.853	6.03
405.06	6.01
405.267	6.11
405.474	5.92
405.681	6.04
405.887	6.02
406.094	6.12
406.301	5.97
406.508	6.41
406.715	5.96
406.922	5.6
407.128	5.41
407.335	5.57
407.542	5.24
407.749	5.33
407.955	5.16
408.162	5.33
408.369	5.25
408.575	5.52
408.782	5.21
408.989	5.61
409.195	5.72
409.402	5.94
409.609	5.66
409.815	5.62
410.022	5.74
410.228	5.94
410.435	5.69
410.642	5.72
410.848	5.52
411.055	5.54
411.261	5.87
411.468	5.99
411.674	5.95
411.881	6.34
412.087	6.36
412.294	6.39
412.5	6.03
412.706	6.07
412.913	5.93
413.119	5.6
413.326	5.41
413.532	5.1
413.738	4.88
413.945	4.76
414.151	4.68
414.357	4.8
414.564	4.43
414.77	4.58
414.976	4.89
415.182	5.07
415.389	5.29
415.595	5.33
415.801	5.09
416.007	5.31
416.214	5.43
416.42	5.18
416.626	5.16
416.832	5.51
417.038	5.59
417.244	5.37
417.45	5.39
417.657	5.35
417.863	5.59
418.069	5.77
418.275	5.89
418.481	5.9
418.687	5.96
418.893	6.07
419.099	5.86
419.305	5.81
419.511	5.72
419.717	5.72
419.923	5.7
420.129	5.59
420.335	5.52
420.541	5.48
420.746	5.4
420.952	5.49
421.158	5.4
421.364	5.43
421.57	5.41
421.776	5.58
421.982	5.55
422.187	5.56
422.393	5.52
422.599	5.51
422.805	5.43
423.01	5.4
423.216	5.22
423.422	5.05
423.628	4.98
423.833	4.94
424.039	4.91
424.245	4.85
424.45	4.89
424.656	5.01
424.862	5
425.067	4.96
425.273	4.9
425.478	5.02
425.684	5.22
425.889	5.38
426.095	5.35
426.301	5.31
426.506	5.49
426.712	5.5
426.917	5.54
427.123	5.67
427.328	5.78
427.533	5.97
427.739	6.1
427.944	5.93
428.15	5.75
428.355	5.7
428.561	5.55
428.766	5.4
428.971	5.42
429.177	5.35
429.382	5.23
429.587	5.33
429.793	5.27
429.998	5.04
430.203	5.22
430.408	5.27
430.614	5.5
430.819	5.48
431.024	5.45
431.229	5.24
431.434	5.1
431.64	5.07
431.845	5
432.05	5.19
432.255	5.19
432.46	5.13
432.665	5.23
432.87	5.21
433.076	5.38
433.281	5.34
433.486	5.43
433.691	5.43
433.896	5.51
434.101	5.45
434.306	5.2
434.511	5.15
434.716	5.21
434.921	5.11
435.126	5.27
435.331	5.03
435.535	5.1
435.74	5.02
435.945	5.16
436.15	4.89
436.355	5.01
436.56	5.1
436.765	5.23
436.97	5.04
437.174	5.04
437.379	4.9
437.584	5.03
437.789	5
437.993	4.91
438.198	4.74
438.403	4.81
438.608	4.82
438.812	4.79
439.017	4.81
439.222	5.01
439.426	4.91
439.631	4.85
439.836	4.96
440.04	4.99
440.245	5.07
440.45	5.14
440.654	5.22
440.859	5.12
441.063	5.19
441.268	5.17
441.472	5.1
441.677	5.18
441.881	5.24
442.086	5.01
442.29	5.02
442.495	4.98
442.699	4.95
442.904	5.02
443.108	5.03
443.312	4.94
443.517	4.82
443.721	4.92
443.925	5.02
444.13	5.08
444.334	5.31
444.538	5.33
444.743	5.43
444.947	5.48
445.151	5.43
445.356	5.55
445.56	5.66
445.764	5.82
445.968	5.81
446.173	5.73
446.377	5.68
446.581	5.57
446.785	5.54
446.989	5.47
447.193	5.44
447.398	5.34
447.602	5.27
447.806	5.16
448.01	4.97
448.214	4.85
448.418	4.83
448.622	4.71
448.826	4.78
449.03	4.79
449.234	4.76
449.438	4.74
449.642	4.77
449.846	4.63
450.05	4.53
450.254	4.62
450.458	4.67
450.662	4.64
450.866	4.59
451.069	4.48
451.273	4.41
451.477	4.45
451.681	4.42
451.885	4.41
452.089	4.58
452.292	4.72
452.496	4.58
452.7	4.57
452.904	4.5
453.107	4.65
453.311	4.85
453.515	4.7
453.719	4.78
453.922	4.88
454.126	4.79
454.33	4.66
454.533	4.5
454.737	4.43
454.94	4.4
455.144	4.51
455.348	4.51
455.551	4.51
455.755	4.52
455.958	4.49
456.162	4.48
456.365	4.69
456.569	4.71
456.772	4.75
456.976	5.16
457.179	5.21
457.383	5.22
457.586	5.2
457.79	5.06
457.993	5.16
458.196	5.2
458.4	5.16
458.603	5.06
458.807	5.16
459.01	5.15
459.213	4.99
459.417	5.06
459.62	5.03
459.823	4.99
460.026	4.92
460.23	4.89
460.433	4.85
460.636	4.79
460.839	4.87
461.042	4.76
461.246	4.81
461.449	4.8
461.652	4.76
461.855	4.76
462.058	4.85
462.261	5
462.464	5.06
462.668	5.14
462.871	5.17
463.074	5.02
463.277	5.06
463.48	5.14
463.683	5.13
463.886	5.16
464.089	5.14
464.292	4.93
464.495	4.93
464.698	4.92
464.901	4.84
465.104	5.16
465.306	5.41
465.509	5.55
465.712	5.36
465.915	5.3
466.118	5.16
466.321	5.25
466.524	5.53
466.726	5.37
466.929	5.41
467.132	5.37
467.335	5.12
467.538	4.86
467.74	4.73
467.943	4.87
468.146	4.91
468.348	4.95
468.551	4.94
468.754	4.72
468.956	4.83
469.159	4.69
469.362	4.51
469.564	4.43
469.767	4.51
469.969	4.51
470.172	4.47
470.375	4.54
470.577	4.58
470.78	4.76
470.982	4.98
471.185	5.08
471.387	5.03
471.59	5.27
471.792	5.26
471.995	5.27
472.197	5.3
472.399	5.4
472.602	5.48
472.804	5.42
473.007	5.19
473.209	4.84
473.411	4.67
473.614	4.91
473.816	4.99
474.018	5.1
474.22	5.11
474.423	5.07
474.625	4.83
474.827	4.82
475.03	4.74
475.232	4.74
475.434	5.13
475.636	5.14
475.838	5.17
476.04	4.89
476.243	4.85
476.445	4.94
476.647	4.83
476.849	4.97
477.051	4.81
477.253	4.96
477.455	5.06
477.657	4.91
477.859	4.88
478.061	4.8
478.263	5
478.465	4.86
478.667	4.71
478.869	4.84
479.071	4.82
479.273	4.8
479.475	4.64
479.677	4.6
479.879	4.6
480.081	4.52
480.283	4.53
480.485	4.47
480.686	4.67
480.888	4.68
481.09	4.74
481.292	4.78
481.494	4.86
481.695	4.98
481.897	5.02
482.099	4.99
482.301	5.1
482.502	5.07
482.704	5.06
482.906	5.03
483.107	5.09
483.309	5.03
483.511	5.01
483.712	4.99
483.914	5.01
484.115	4.96
484.317	4.99
484.519	5
484.72	5.02
484.922	5
485.123	4.97
485.325	4.97
485.526	4.96
485.728	4.96
485.929	4.96
486.131	4.89
486.332	4.91
486.534	4.84
486.735	4.82
486.936	4.77
487.138	4.84
487.339	4.85
487.541	4.85
487.742	4.83
487.943	4.82
488.144	4.82
488.346	4.89
488.547	4.95
488.748	5
488.95	4.96
489.151	5
489.352	4.93
489.553	5.04
489.755	4.96
489.956	5
490.157	5.05
490.358	4.99
490.559	4.99
490.76	4.99
490.961	5.01
491.163	5.03
491.364	5.02
491.565	5.07
491.766	5
491.967	5.05
492.168	5.05
492.369	5.08
492.57	5.14
492.771	5.12
492.972	5.06
493.173	5.04
493.374	5.08
493.575	5.07
493.776	5.04
493.976	5
494.177	5.05
494.378	5.17
494.579	4.97
494.78	4.95
494.981	4.97
495.182	4.93
495.382	4.85
495.583	4.78
495.784	4.82
495.985	4.92
496.185	4.95
496.386	4.89
496.587	4.77
496.788	4.91
496.988	5.02
497.189	4.94
497.39	5.05
497.59	5.13
497.791	5.27
497.992	5.24
498.192	5.24
498.393	5.28
498.593	5.37
498.794	5.44
498.994	5.43
499.195	5.29
499.395	5.27
499.596	5.27
499.796	5.31
499.997	5.12
500.197	5.06
500.398	5.12
500.598	5.06
500.799	5.03
500.999	4.93
501.199	5.1
501.4	5.21
501.6	5.19
501.801	5.15
502.001	5.06
502.201	5.18
502.402	5.3
502.602	5.19
502.802	5.32
503.002	5.38
503.203	5.41
503.403	5.32
503.603	5.27
503.803	5.38
504.003	5.4
504.204	5.42
504.404	5.34
504.604	5.35
504.804	5.38
505.004	5.36
505.204	5.25
505.404	5.31
505.604	5.32
505.804	5.41
506.005	5.49
506.205	5.57
506.405	5.52
506.605	5.71
506.805	5.63
507.005	5.53
507.204	5.6
507.404	5.56
507.604	5.58
507.804	5.63
508.004	5.74
508.204	5.77
508.404	5.71
508.604	5.85
508.804	5.85
509.003	5.97
509.203	6.02
509.403	5.94
509.603	6.04
509.803	6.11
510.002	5.94
510.202	5.75
510.402	5.72
510.602	5.77
510.801	5.69
511.001	5.69
511.201	5.69
511.4	5.84
511.6	5.97
511.8	5.97
511.999	5.9
512.199	6.07
512.398	6.13
512.598	6.24
512.797	6.25
512.997	6.27
513.197	6.35
513.396	6.39
513.596	6.32
513.795	6.2
513.994	6.23
514.194	6.43
514.393	6.51
514.593	6.73
514.792	6.73
514.992	6.72
515.191	6.96
515.39	6.84
515.59	6.9
515.789	6.99
515.988	7.07
516.188	7.12
516.387	7.07
516.586	7.04
516.786	6.98
516.985	6.99
517.184	7.02
517.383	6.91
517.582	6.95
517.782	6.96
517.981	7
518.18	6.94
518.379	7.05
518.578	7.11
518.777	7.16
518.976	7.22
519.176	7.29
519.375	7.4
519.574	7.44
519.773	7.54
519.972	7.62
520.171	7.62
520.37	7.79
520.569	7.85
520.768	7.93
520.967	7.99
521.166	8.03
521.365	8.12
521.564	8.14
521.762	8.25
521.961	8.27
522.16	8.26
522.359	8.39
522.558	8.59
522.757	8.51
522.956	8.54
523.154	8.51
523.353	8.64
523.552	8.64
523.751	8.62
523.949	8.62
524.148	8.57
524.347	8.64
524.546	8.64
524.744	8.53
524.943	8.68
525.142	8.59
525.34	8.69
525.539	8.55
525.737	8.53
525.936	8.77
526.135	8.84
526.333	8.93
526.532	9.01
526.73	9.04
526.929	9.12
527.127	9.12
527.326	9.18
527.524	9.29
527.723	9.32
527.921	9.4
528.12	9.3
528.318	9.38
528.516	9.44
528.715	9.48
528.913	9.57
529.112	9.62
529.31	9.65
529.508	9.69
529.707	9.67
529.905	9.8
530.103	9.82
530.301	9.87
530.5	9.84
530.698	9.92
530.896	9.95
531.094	9.94
531.293	9.95
531.491	10.03
531.689	10.1
531.887	10.26
532.085	10.27
532.283	10.29
532.481	10.36
532.68	10.45
532.878	10.59
533.076	10.64
533.274	10.65
533.472	10.65
533.67	10.64
533.868	10.67
534.066	10.59
534.264	10.62
534.462	10.73
534.66	10.88
534.858	10.87
535.056	10.81
535.253	10.8
535.451	10.91
535.649	11.13
535.847	11.25
536.045	11.36
536.243	11.56
536.441	11.67
536.638	11.72
536.836	11.69
537.034	11.75
537.232	11.79
537.43	11.91
537.627	11.87
537.825	11.85
538.023	11.82
538.22	11.94
538.418	11.95
538.616	11.88
538.813	11.92
539.011	11.9
539.209	12.1
539.406	12.2
539.604	12.17
539.801	12.41
539.999	12.42
540.196	12.64
540.394	12.72
540.591	12.72
540.789	12.88
540.986	12.95
541.184	12.93
541.381	12.89
541.579	12.92
541.776	12.95
541.974	12.93
542.171	12.96
542.368	12.97
542.566	13
542.763	13.02
542.96	13.06
543.158	13.09
543.355	13.23
543.552	13.31
543.75	13.43
543.947	13.6
544.144	13.66
544.341	13.81
544.539	13.76
544.736	13.83
544.933	13.95
545.13	13.97
545.327	14
545.524	14.16
545.722	14.25
545.919	14.13
546.116	14.06
546.313	14.14
546.51	14.08
546.707	14.25
546.904	14.27
547.101	14.34
547.298	14.42
547.495	14.4
547.692	14.39
547.889	14.47
548.086	14.69
548.283	14.91
548.48	15.04
548.677	15.09
548.874	15.22
549.07	15.3
549.267	15.44
549.464	15.61
549.661	15.8
549.858	16.03
550.055	16.01
550.251	16.06
550.448	15.99
550.645	16.14
550.842	16.45
551.038	16.35
551.235	16.49
551.432	16.5
551.628	16.4
551.825	16.46
552.022	16.37
552.218	16.54
552.415	16.68
552.612	16.7
552.808	16.73
553.005	16.8
553.201	16.9
553.398	16.91
553.594	16.84
553.791	17.01
553.987	17.13
554.184	17.02
554.38	16.95
554.577	16.81
554.773	16.93
554.97	16.98
555.166	17
555.362	16.96
555.559	17.06
555.755	17.13
555.952	17.16
556.148	17.21
556.344	17.47
556.541	17.59
556.737	17.71
556.933	17.91
557.129	17.83
557.326	17.88
557.522	18.06
557.718	18.05
557.914	18.24
558.11	18.11
558.307	18.26
558.503	18.35
558.699	18.51
558.895	18.53
559.091	18.49
559.287	18.49
559.483	18.56
559.679	18.61
559.876	18.68
560.072	18.72
560.268	18.94
560.464	18.86
560.66	18.9
560.856	18.98
561.052	19.22
561.247	19.3
561.443	19.48
561.639	19.32
561.835	19.41
562.031	19.57
562.227	19.55
562.423	19.65
562.619	19.87
562.815	19.86
563.01	19.88
563.206	19.97
563.402	19.96
563.598	20.08
563.793	20.29
563.989	20.37
564.185	20.41
564.381	20.65
564.576	20.64
564.772	20.83
564.968	20.96
565.163	21.2
565.359	21.16
565.555	21.29
565.75	21.39
565.946	21.59
566.141	21.6
566.337	21.59
566.532	21.81
566.728	21.88
566.923	21.88
567.119	21.95
567.314	21.84
567.51	22.02
567.705	22.01
567.901	21.94
568.096	22.07
568.292	22.05
568.487	22.1
568.682	21.99
568.878	21.96
569.073	21.97
569.268	21.9
569.464	22.17
569.659	22.1
569.854	22.37
570.05	22.34
570.245	22.22
570.44	22.39
570.635	22.6
570.831	22.56
571.026	22.79
571.221	22.67
571.416	22.73
571.611	22.61
571.806	22.65
572.002	22.6
572.197	22.76
572.392	22.85
572.587	22.98
572.782	22.92
572.977	23.12
573.172	23.23
573.367	23.37
573.562	23.54
573.757	23.8
573.952	23.81
574.147	23.84
574.342	23.99
574.537	23.9
574.732	23.92
574.927	23.99
575.121	23.94
575.316	23.89
575.511	23.9
575.706	23.91
575.901	23.77
576.096	24.03
576.29	24.03
576.485	23.98
576.68	24.01
576.875	23.92
577.069	23.79
577.264	23.84
577.459	23.89
577.654	23.97
577.848	23.9
578.043	24.07
578.238	24.06
578.432	23.96
578.627	23.9
578.821	24.18
579.016	24.16
579.21	24.35
579.405	24.3
579.6	24.33
579.794	24.45
579.989	24.51
580.183	24.62
580.378	24.52
580.572	24.79
580.766	24.88
580.961	24.8
581.155	24.99
581.35	25.05
581.544	25.16
581.738	25.23
581.933	25.22
582.127	25.09
582.321	24.95
582.516	25.39
582.71	25.49
582.904	25.63
583.099	25.72
583.293	25.79
583.487	25.82
583.681	26.02
583.875	25.85
584.07	25.75
584.264	26.08
584.458	26.2
584.652	25.89
584.846	25.81
585.04	25.95
585.234	25.94
585.428	25.88
585.623	25.98
585.817	26.03
586.011	26.27
586.205	26.55
586.399	26.62
586.593	26.42
586.787	26.33
586.981	26.52
587.174	26.39
587.368	26.45
587.562	26.53
587.756	26.51
587.95	26.47
588.144	26.23
588.338	26.15
588.532	26.13
588.725	26.34
588.919	26.29
589.113	26.14
589.307	26.23
589.501	26.32
589.694	26.33
589.888	26.65
590.082	26.8
590.275	26.94
590.469	27.19
590.663	27.32
590.856	27.29
591.05	27.51
591.244	27.59
591.437	27.62
591.631	27.66
591.824	27.59
592.018	27.12
592.212	26.96
592.405	27.1
592.599	26.97
592.792	27.13
592.986	27.13
593.179	27.22
593.372	27.53
593.566	27.49
593.759	27.63
593.953	27.98
594.146	28.42
594.339	28.55
594.533	28.5
594.726	28.65
594.92	28.62
595.113	28.83
595.306	28.81
595.499	28.5
595.693	28.66
595.886	28.52
596.079	28.54
596.272	28.51
596.466	28.59
596.659	28.68
596.852	28.54
597.045	28.41
597.238	28.3
597.431	28.44
597.624	28.66
597.818	28.78
598.011	28.76
598.204	28.84
598.397	28.69
598.59	28.65
598.783	28.75
598.976	28.73
599.169	28.84
599.362	28.95
599.555	28.72
599.748	28.71
599.941	28.49
600.134	28.83
600.326	28.51
600.519	28.63
600.712	28.38
600.905	28.52
601.098	28.78
601.291	28.8
601.483	28.78
601.676	29.06
601.869	28.92
602.062	29
602.255	28.95
602.447	29.06
602.64	29.23
602.833	29.34
603.025	29.33
603.218	29.04
603.411	28.92
603.603	29
603.796	28.97
603.989	29.12
604.181	29.22
604.374	29.08
604.566	29.16
604.759	28.98
604.951	29.21
605.144	29.17
605.336	29.45
605.529	29.49
605.721	29.43
605.914	29.46
606.106	29.38
606.299	29.24
606.491	29.35
606.683	29.3
606.876	29.64
607.068	29.49
607.26	29.34
607.453	29.21
607.645	29.2
607.837	29.24
608.03	29.31
608.222	29.48
608.414	29.62
608.606	29.77
608.799	29.81
608.991	29.83
609.183	29.98
609.375	29.97
609.567	30.02
609.759	30.15
609.952	30.38
610.144	30.27
610.336	30.22
610.528	30.31
610.72	30.14
610.912	30.27
611.104	30.19
611.296	29.95
611.488	30.1
611.68	30.08
611.872	30.22
612.064	30.12
612.256	29.93
612.448	29.93
612.64	29.75
612.832	29.9
613.023	29.79
613.215	29.62
613.407	29.89
613.599	29.8
613.791	29.56
613.983	29.62
614.174	29.28
614.366	29.48
614.558	29.41
614.75	29.53
614.941	29.65
615.133	29.62
615.325	29.91
615.516	29.83
615.708	29.94
615.9	30.13
616.091	29.99
616.283	30.19
616.475	30.34
616.666	30.59
616.858	30.62
617.049	30.37
617.241	30.43
617.432	30.36
617.624	30.5
617.815	30.68
618.007	30.81
618.198	31.04
618.39	31.27
618.581	31.45
618.773	31.55
618.964	31.54
619.155	31.58
619.347	31.43
619.538	31.46
619.729	31.6
619.921	31.48
620.112	31.61
620.303	31.48
620.494	31.28
620.686	31.32
620.877	30.92
621.068	30.69
621.259	30.99
621.451	31.29
621.642	31.19
621.833	31.12
622.024	31.18
622.215	30.95
622.406	30.97
622.597	31.02
622.788	30.78
622.98	31.04
623.171	31.18
623.362	31.12
623.553	31.26
623.744	31.46
623.935	31.49
624.126	31.54
624.317	31.69
624.508	31.64
624.698	31.64
624.889	31.47
625.08	31.75
625.271	32.11
625.462	32.09
625.653	31.7
625.844	31.62
626.034	31.63
626.225	31.65
626.416	31.75
626.607	31.84
626.798	32.1
626.988	32.45
627.179	32.24
627.37	32.14
627.56	32.15
627.751	32.43
627.942	32.59
628.132	32.47
628.323	32.46
628.514	32.52
628.704	32.78
628.895	32.55
629.085	32.52
629.276	32.43
629.466	32.63
629.657	32.68
629.847	32.63
630.038	32.53
630.228	32.69
630.419	32.52
630.609	32.57
630.8	32.41
630.99	32.85
631.181	32.97
631.371	33.01
631.561	32.45
631.752	32.6
631.942	32.66
632.132	32.84
632.323	32.82
632.513	32.97
632.703	32.52
632.893	32.34
633.084	32.11
633.274	32.02
633.464	32.09
633.654	32.38
633.844	32.33
634.034	32.31
634.225	32.28
634.415	32.49
634.605	32.56
634.795	33.07
634.985	32.92
635.175	32.83
635.365	32.88
635.555	32.95
635.745	32.98
635.935	32.92
636.125	33.01
636.315	32.89
636.505	32.76
636.695	32.91
636.885	32.6
637.075	32.62
637.265	32.98
637.455	32.83
637.644	32.7
637.834	32.93
638.024	32.58
638.214	32.41
638.404	32.63
638.593	32.41
638.783	32.22
638.973	32.39
639.163	32.67
639.352	32.3
639.542	32.14
639.732	32.19
639.921	31.83
640.111	32.16
640.301	32.32
640.49	32.21
640.68	31.83
640.87	32.08
641.059	32.11
641.249	32.11
641.438	32.27
641.628	32.48
641.817	32.55
642.007	32.73
642.196	32.75
642.386	32.78
642.575	33.05
642.764	33.63
642.954	33.54
643.143	33.56
643.333	33.57
643.522	33.64
643.711	33.55
643.901	33.35
644.09	33.36
644.279	33.44
644.469	33.34
644.658	33.06
644.847	33.13
645.036	33.11
645.226	33.5
645.415	33.43
645.604	33.16
645.793	33.44
645.982	33.75
646.171	33.69
646.361	33.86
646.55	33.87
646.739	33.94
646.928	33.99
647.117	34.21
647.306	33.82
647.495	33.99
647.684	33.99
647.873	34.07
648.062	34.17
648.251	34.15
648.44	33.8
648.629	33.93
648.818	33.84
649.007	33.42
649.196	33.23
649.384	33.44
649.573	33.12
649.762	33.44
649.951	33.67
650.14	33.59
650.328	33.71
650.517	33.71
650.706	33.65
650.895	33.48
651.083	33.49
651.272	33.15
651.461	33.02
651.65	33.35
651.838	33.1
652.027	32.89
652.216	32.67
652.404	32.79
652.593	32.83
652.781	32.7
652.97	32.87
653.158	33.05
653.347	33.58
653.535	33.62
653.724	33.28
653.912	33.69
654.101	33.53
654.289	33.55
654.478	33.62
654.666	33.74
654.855	33.72
655.043	33.68
655.231	33.54
655.42	33.2
655.608	33.22
655.796	33.69
655.985	33.32
656.173	33.3
656.361	33.6
656.55	33.58
656.738	33.8
656.926	33.99
657.114	34.31
657.302	34.57
657.491	34.65
657.679	34.47
657.867	34.33
658.055	34.27
658.243	34.68
658.431	34.82
658.619	35.1
658.807	34.93
658.996	35.03
659.184	35.03
659.372	35.13
659.56	35.01
659.748	35.19
659.936	35.16
660.124	35.51
660.311	35.41
660.499	35.26
660.687	34.9
660.875	34.93
661.063	34.95
661.251	34.61
661.439	34.26
661.627	34.43
661.814	34.53
662.002	34.54
662.19	34.88
662.378	34.8
662.565	34.63
662.753	34.4
662.941	34.46
663.129	34.29
663.316	34.71
663.504	34.93
663.692	35.19
663.879	35.44
664.067	35.43
664.254	35.16
664.442	35.25
664.63	35.29
664.817	35.84
665.005	36
665.192	36.6
665.38	36.37
665.567	36.94
665.755	37.01
665.942	36.52
666.13	36.56
666.317	36.46
666.504	36.11
666.692	36.14
666.879	36.19
667.067	36.03
667.254	35.57
667.441	35.63
667.629	35.35
667.816	35.17
668.003	34.94
668.19	35.01
668.378	35.09
668.565	35.52
668.752	35.88
668.939	35.51
669.127	35.81
669.314	35.94
669.501	35.71
669.688	35.64
669.875	35.68
670.062	36.1
670.249	36.11
670.436	35.83
670.623	35.73
670.81	35.68
670.997	36.05
671.184	35.86
671.371	36.6
671.558	37.03
671.745	37.62
671.932	37.97
672.119	38.01
672.306	38.13
672.493	38.13
672.68	38.28
672.867	38.19
673.054	38.02
673.24	38.38
673.427	37.96
673.614	37.9
673.801	37
673.988	36.73
674.174	36.94
674.361	36.86
674.548	37.02
674.734	36.78
674.921	36.67
675.108	36.5
675.294	36.16
675.481	36.26
675.668	36.23
675.854	36.4
676.041	36.39
676.227	36.32
676.414	36.64
676.601	36.84
676.787	36.74
676.974	36.68
677.16	37.05
677.347	37.13
677.533	36.75
677.719	36.38
677.906	36.42
678.092	36.19
678.279	36.31
678.465	35.85
678.651	35.68
678.838	35.68
679.024	36.18
679.21	36.3
679.397	36.4
679.583	36.6
679.769	36.95
679.955	36.88
680.142	37.2
680.328	37.23
680.514	37.13
680.7	36.85
680.886	36.97
681.073	36.53
681.259	36.3
681.445	36.01
681.631	35.75
681.817	35.75
682.003	35.82
682.189	35.49
682.375	35.26
682.561	35.63
682.747	36.29
682.933	35.6
683.119	35.86
683.305	36.1
683.491	36.18
683.677	36.34
683.863	36.17
684.049	36.47
684.235	36.62
684.42	36.37
684.606	36.15
684.792	35.92
684.978	36.91
685.164	36.72
685.349	36.96
685.535	37.33
685.721	37.16
685.907	37.44
686.092	37.5
686.278	37.47
686.464	37.96
686.649	37.8
686.835	37.78
687.021	37.64
687.206	37.94
687.392	37.43
687.577	37.06
687.763	36.96
687.948	37.07
688.134	37.04
688.319	37.31
688.505	36.93
688.69	37.01
688.876	37.07
689.061	36.82
689.247	36.66
689.432	36.47
689.618	36.28
689.803	36.61
689.988	36.68
690.174	36.43
690.359	35.95
690.544	36.04
690.73	36.4
690.915	35.89
691.1	35.92
691.285	36.24
691.471	36.7
691.656	36.93
691.841	36.68
692.026	36.47
692.211	36.3
692.396	36.15
692.582	36.22
692.767	36.23
692.952	36.38
693.137	36.68
693.322	36.7
693.507	36.47
693.692	36.72
693.877	37.09
694.062	36.99
694.247	37.33
694.432	37.85
694.617	37.93
694.802	37.98
694.987	38.07
695.172	38.25
695.357	37.99
695.541	38.23
695.726	38.51
695.911	38.51
696.096	38.59
696.281	38.24
696.466	38.55
696.65	38.57
696.835	38.67
697.02	38.58
697.204	38.23
697.389	38.3
697.574	38.16
697.759	37.63
697.943	37.52
698.128	37.45
698.312	37.75
698.497	37.38
698.682	37.68
698.866	37.68
699.051	37.66
699.235	37.85
699.42	37.82
699.604	37.89
699.789	37.92
699.973	37.96
700.158	38.04
700.342	37.87
700.527	38.1
700.711	37.59
700.895	37.48
701.08	37.46
701.264	37.12
701.448	37.01
701.633	36.89
701.817	37.3
702.001	37.29
702.186	37.59
702.37	37.94
702.554	37.52
702.738	37.28
702.923	37.67
703.107	37.58
703.291	38.14
703.475	38.15
703.659	38.77
703.843	38.58
704.027	38.4
704.212	37.56
704.396	37.49
704.58	38.18
704.764	38.53
704.948	37.68
705.132	38.75
705.316	38.37
705.5	38.32
705.684	37.99
705.868	38.55
706.052	39.05
706.235	40.05
706.419	39.32
706.603	39.15
706.787	39.32
706.971	39.61
707.155	39.25
707.339	39.73
707.522	40.05
707.706	39.75
707.89	38.88
708.074	38.95
708.257	38.09
708.441	39.32
708.625	39.07
708.808	39.19
708.992	39.1
709.176	38.23
709.359	37.99
709.543	37.76
709.727	37.75
709.91	38.33
710.094	38.12
710.277	38.77
710.461	38.07
710.644	38.12
710.828	37.78
711.011	37.7
711.195	38.1
711.378	38.49
711.562	39.04
711.745	39.06
711.928	38.93
712.112	38.63
712.295	38.54
712.478	38.05
712.662	38.26
712.845	38.45
713.028	39.07
713.212	39.04
713.395	38.65
713.578	38.32
713.761	38.26
713.945	38.01
714.128	38.43
714.311	38.68
714.494	39.14
714.677	38.64
714.86	39.01
715.043	39.15
715.227	39.2
715.41	38.94
715.593	38.77
715.776	39
715.959	39.48
716.142	38.92
716.325	38.73
716.508	38.79
716.691	39.52
716.874	39.12
717.057	38.74
717.239	38.83
717.422	38.8
717.605	39.27
717.788	39.12
717.971	38.77
718.154	39.17
718.337	38.3
718.519	38.36
718.702	38.15
718.885	38.45
719.068	37.89
719.25	38.37
719.433	39.58
719.616	38.89
719.798	38.1
719.981	37.83
720.164	37.47
720.346	38.58
720.529	37.5
720.712	37.07
720.894	36.82
721.077	37.11
721.259	36.8
721.442	36.06
721.624	35.94
721.807	36.85
721.989	37.14
722.172	37.65
722.354	36.91
722.537	38.28
722.719	38.9
722.901	39.71
723.084	39.98
723.266	39.8
723.448	39.83
723.631	41.63
723.813	40.89
723.995	41.81
724.178	41.7
724.36	42.47
724.542	41.77
724.724	41.09
724.907	40.59
725.089	40.93
725.271	40.83
725.453	40.79
725.635	39.67
725.817	41
725.999	40.75
726.181	40.48
726.364	39.6
726.546	39.77
726.728	39.97
726.91	39.27
727.092	39.37
727.274	39.85
727.456	39.71
727.638	39.37
727.819	39.06
728.001	38.18
728.183	38.44
728.365	39.22
728.547	39.64
728.729	39.82
728.911	40.37
729.093	40.23
729.274	39.88
729.456	39.32
729.638	39.11
729.82	38.63
730.001	39.55
730.183	39.29
730.365	38.79
730.546	38.88
730.728	38.33
730.91	38.27
731.091	37.87
731.273	38.02
731.455	38.15
731.636	38.38
731.818	38.47
731.999	37.68
732.181	37.56
732.362	37.91
732.544	37.76
732.725	38.02
732.907	38.32
733.088	38.71
733.27	38.82
733.451	39.4
733.633	40.17
733.814	40.2
733.995	39.95
734.177	40.61
734.358	41.24
734.539	41.51
734.721	41.22
734.902	40.74
735.083	40.5
735.264	40.24
735.446	39.57
735.627	39.07
735.808	39.35
735.989	40.04
736.17	39.91
736.351	38.85
736.533	38.24
736.714	39.3
736.895	39.21
737.076	39.49
737.257	38.59
737.438	38.95
737.619	38.03
737.8	37.8
737.981	37.67
738.162	37.76
738.343	37.7
738.524	38.42
738.705	38.35
738.886	38.57
739.067	38.23
739.247	39.87
739.428	38.78
739.609	39.04
739.79	39.99
739.971	40.59
740.151	39.92
740.332	40.7
740.513	40.26
740.694	40.22
740.874	39.45
741.055	40.67
741.236	40.3
741.417	41.93
741.597	42.01
741.778	41.04
741.958	40.06
742.139	40.67
742.32	40.06
742.5	39.8
742.681	38.9
742.861	39.5
743.042	38.35
743.222	37.54
743.403	36.61
743.583	36.76
743.764	37.34
743.944	37.46
744.124	36.99
744.305	38.1
744.485	38.84
744.666	39.42
744.846	39.63
745.026	39.8
745.207	40.49
745.387	40.18
745.567	40.53
745.747	40.23
745.928	41.53
746.108	42.16
746.288	41.84
746.468	41.12
746.648	40.64
746.829	40.76
747.009	40.59
747.189	39.81
747.369	41.29
747.549	41.52
747.729	41.92
747.909	40.59
748.089	39.94
748.269	39.13
748.449	39.84
748.629	40.71
748.809	40.84
748.989	40.93
749.169	41.51
749.349	41.14
749.529	40.74
749.709	40.53
749.889	41.87
750.068	41.74
750.248	42.57
750.428	41.69
750.608	41.29
750.788	40.51
750.967	41.08
751.147	41.17
751.327	39.77
751.507	39.74
751.686	39.12
751.866	38.52
752.046	39.17
752.225	39.42
752.405	39.53
752.585	39.15
752.764	40.11
752.944	39.02
753.123	39.02
753.303	41.09
753.482	39.95
753.662	40.65
753.841	40.3
754.021	40.14
754.2	40.17
754.38	39.99
754.559	41.2
754.739	40.79
754.918	41.41
755.097	41.7
755.277	40.55
755.456	41.7
755.635	41.36
755.815	41.76
755.994	42.32
756.173	41.05
756.352	41.94
756.532	40.82
756.711	40.85
756.89	40.99
757.069	41.34
757.248	41.63
757.427	42.11
757.607	41.15
757.786	41.69
757.965	41.06
758.144	41.03
758.323	39.99
758.502	39.89
758.681	38.54
758.86	38.29
759.039	37.77
759.218	37.77
759.397	37.86
759.576	39.66
759.755	39.1
759.934	38.95
760.113	39.84
760.291	40.58
760.47	41.27
760.649	43.15
760.828	42.34
761.007	41.82
761.186	41.66
761.364	41.2
761.543	40.6
761.722	40.6
761.901	40.31
762.079	40.13
762.258	40.04
762.437	39.57
762.615	39.64
762.794	40.7
762.972	41.42
763.151	41.39
763.33	41.27
763.508	40.9
763.687	40.51
763.865	41.45
764.044	41.7
764.222	41.71
764.401	41.55
764.579	41.26
764.758	40.88
764.936	40.74
765.114	40.9
765.293	40.61
765.471	40.52
765.65	40.32
765.828	40.03
766.006	40.02
766.184	39.85
766.363	39.95
766.541	39.48
766.719	40.63
766.898	40.9
767.076	40.92
767.254	41.05
767.432	41.6
767.61	42.22
767.788	41.45
767.967	40.8
768.145	41.43
768.323	41.73
768.501	42.87
768.679	41.74
768.857	41.18
769.035	40.74
769.213	41.52
769.391	41.42
769.569	41.17
769.747	41.41
769.925	40.98
770.103	39.98
770.281	39.65
770.459	38.28
770.636	38.71
770.814	38.87
770.992	38.08
771.17	38.57
771.348	36.95
771.525	36.61
771.703	37.66
771.881	38.84
772.059	39.67
772.236	39.69
772.414	41.61
772.592	41.05
772.769	40.21
772.947	43.03
773.125	43.4
773.302	45.73
773.48	46.28
773.657	44.92
773.835	43.62
774.013	43.61
774.19	42.86
774.368	40.05
774.545	39.75
774.723	39.36
774.9	38.05
775.077	36.25
775.255	35.21
775.432	35.51
775.61	35.64
775.787	36.45
775.964	35.92
776.142	36.58
776.319	39.14
776.496	38.52
776.674	39.92
776.851	40.8
777.028	42.23
777.205	42.09
777.382	40.86
777.56	41.35
777.737	42.77
777.914	40.39
778.091	40.2
778.268	39.42
778.445	40.25
778.622	40.22
778.8	40.29
778.977	38.58
779.154	39.63
779.331	39.87
779.508	40.15
779.685	38.07
779.862	40.44
780.038	40.98
780.215	41.32
780.392	40.62
780.569	40.4
780.746	38.17
780.923	38.72
781.1	38.03
781.277	39.3
781.453	38.02
781.63	39.39
781.807	39.94
781.984	40.59
782.16	41.19
782.337	42.49
782.514	43.13
782.691	46.07
782.867	47.07
783.044	47.02
783.221	46.45
783.397	48.16
783.574	47.53
783.75	47.8
783.927	48.38
784.103	46.84
784.28	45.34
784.456	44.9
784.633	43.3
784.809	40.98
784.986	39.18
785.162	38.9
785.339	37.63
785.515	38.19
785.692	37.12
785.868	35.71
786.044	34.4
786.221	35.12
786.397	34.6
786.573	35.08
786.749	35.01
786.926	34.95
787.102	35.43
787.278	36.8
787.454	36.13
787.631	37.11
787.807	36.52
787.983	39.9
788.159	40.68
788.335	42.91
788.511	42.24
788.687	44.43
788.863	46.33
789.039	46.7
789.216	46.53
789.392	45.84
789.568	46.42
789.744	47.01
789.919	47.34
790.095	45.63
790.271	43.71
790.447	43.25
790.623	43.43
790.799	42.27
790.975	41.66
791.151	41.04
791.327	41.54
791.502	38.95
791.678	38.63
791.854	37.78
792.03	39.22
792.205	37.93
792.381	39.35
792.557	37.73
792.733	38.37
792.908	39.53
793.084	39.03
793.259	37.69
793.435	41.12
793.611	42.25
793.786	41.44
793.962	40.81
794.137	41.75
794.313	41.98
794.488	42.11
794.664	42.15
794.839	40.21
795.015	41.68
795.19	42.59
795.366	41.77
795.541	40.81
795.716	42.2
795.892	42.57
796.067	42.27
796.242	39.34
796.418	41.68
796.593	38.67
796.768	39.58
796.944	38.45
797.119	37.81
797.294	38.08
797.469	38.39
797.644	35.87
797.82	35.88
797.995	35.69
798.17	38.7
798.345	37.98
798.52	41.98
798.695	42.13
798.87	41.51
799.045	42.12
799.22	42.39
799.395	40.59
799.57	42.9
799.745	43.46
799.92	42.89
800.095	42.34
800.27	39.74
800.445	39.52
800.62	37.86
800.795	39.28
800.97	37.41
801.145	35.77
801.319	36.25
801.494	34.6
801.669	34.87
801.844	37.54
802.018	36.45
802.193	38.31
802.368	35.37
802.543	34.82
802.717	34.01
802.892	36.66
803.067	35.82
803.241	35.55
803.416	35.58
803.59	35.82
803.765	33.48
803.94	32.34
804.114	31.03
804.289	34.45
804.463	35.74
804.638	35.8
804.812	34.78
804.986	37.33
805.161	39.39
805.335	38.85
805.51	37.29
805.684	38.3
805.858	39.4
806.033	41.06
806.207	39.14
806.381	40.19
806.556	42.68
806.73	44.62
806.904	46.06
807.078	45.6
807.253	48.28
807.427	48.85
807.601	48.71
807.775	48.32
807.949	45.71
808.123	44.5
808.298	43.64
808.472	43.48
808.646	42.75
808.82	40.29
808.994	39.7
809.168	35.5
809.342	34.15
809.516	34.41
809.69	33.69
809.864	34.37
810.038	37.5
810.212	35.86
810.385	34.74
810.559	33.05
810.733	31.44
810.907	31.23
811.081	36
811.255	37.44
811.428	36.98
811.602	39.57
811.776	39.43
811.95	37.61
812.123	38.66
812.297	36.63
812.471	38.87
812.644	42.13
812.818	47.06
812.992	44.76
813.165	43.87
813.339	42.89
813.512	43.7
813.686	45.41
813.86	46.76
814.033	45.68
814.207	48.84
814.38	48.21
814.554	45.61
814.727	43.45
814.9	43.86
815.074	44.22
815.247	44.34
815.421	41.29
815.594	38.82
815.767	40.12
815.941	41.95
816.114	40.56
816.287	38.04
816.46	42.89
816.634	41.83
816.807	41.85
816.98	44.55
817.153	45.13
817.327	46.34
817.5	48.68
817.673	46.39
817.846	47.85
818.019	47.33
818.192	51.44
818.365	44.35
818.538	43.14
818.711	38.73
818.884	35.87
819.057	37.11
819.23	36.61
819.403	36.54
819.576	38
819.749	38.69
819.922	39.36
820.095	37.3
820.268	39.12
820.441	39.82
820.614	42.37
820.786	43.13
820.959	43.55
821.132	45.25
821.305	43.3
821.477	43.12
821.65	42.86
821.823	42.44
821.996	42.54
822.168	43.02
822.341	42.6
822.514	42.4
822.686	42.51
822.859	42.09
823.031	41.69
823.204	42.76
823.376	41.96
823.549	41.72
823.722	41.62
823.894	41.54
824.067	41.32
824.239	41.77
824.411	42.14
824.584	42.29
824.756	41.84
824.929	41.74
825.101	41.72
825.273	42.42
825.446	41.77
825.618	42.05
825.79	42.25
825.963	42.21
826.135	41.92
826.307	41.24
826.479	41.56
826.652	42.11
826.824	42.17
826.996	41.52
827.168	41.69
827.34	42.58
827.512	43.07
827.684	43.74
827.856	43.72
828.029	44.5
828.201	44.84
828.373	43.99
828.545	43.58
828.717	43.3
828.889	43.42
829.061	44.2
829.232	45.49
829.404	45.56
829.576	44.84
829.748	45.53
829.92	44.85
830.092	46.11
830.264	46.71
830.436	47.86
830.607	47.57
830.779	47.15
830.951	45.62
831.123	42.56
831.294	41.14
831.466	43.71
831.638	43.31
831.809	43.48
831.981	42.13
832.153	41.1
832.324	41.88
832.496	43.71
832.667	44.39
832.839	44.37
833.011	45.82
833.182	46.4
833.354	45.45
833.525	43.85
833.697	41.98
833.868	42.74
834.039	45.1
834.211	43.95
834.382	43.24
834.554	43.97
834.725	42.97
834.896	42.82
835.068	41.04
835.239	38.25
835.41	39.34
835.581	40.45
835.753	39.6
835.924	37.22
836.095	36.07
836.266	35.89
836.438	33.64
836.609	33.62
836.78	35.32
836.951	35.32
837.122	35.33
837.293	35.1
837.464	34.84
837.635	36.85
837.806	38.86
837.977	38.68
838.148	38.42
838.319	40
838.49	42.75
838.661	41.43
838.832	43.26
839.003	46.17
839.174	49.36
839.345	51
839.516	49.6
839.687	47.53
839.857	49.8
840.028	49.97
840.199	47.07
840.37	45.86
840.54	43.85
840.711	45.85
840.882	44.66
841.053	40.93
841.223	36.38
841.394	31.2
841.564	32.56
841.735	31.92
841.906	34.32
842.076	37.6
842.247	35.77
842.417	36.15
842.588	35.45
842.758	33.87
842.929	30.57
843.099	32.69
843.27	39.26
843.44	37.85
843.611	39.52
843.781	36.66
843.951	35.66
844.122	35.15
844.292	32.64
844.462	31.02
844.633	32.48
844.803	36.92
844.973	31.74
845.144	29.06
845.314	30.52
845.484	25.05
845.654	32.4
845.824	35.29
845.995	31.07
846.165	30.87
846.335	28.55
846.505	23.21
846.675	26.23
846.845	41.83
847.015	38.81
847.185	35.44
847.355	45.39
847.525	45.3
847.695	45.15
847.865	53.96
848.035	54.1
848.205	53.25
848.375	59.81
848.545	58.58
848.715	44.97
848.884	44.46
849.054	47.12
849.224	43.58
849.394	47.38
849.564	53.62
849.733	49.11
849.903	51.31
850.073	50.5
850.243	46.1
850.412	43.18
850.582	45.18
850.752	40.95
850.921	37.48
851.091	40.06
851.26	34.74
851.43	29.78
851.599	36.81
851.769	37.51
851.939	40.53
852.108	43.26
852.278	47.48
852.447	47.9
852.616	48.42
852.786	59.13
852.955	56.26
853.125	57.58
853.294	61.8
853.463	54.9
853.633	55.78
853.802	65.75
853.971	74.88
854.141	74.82
854.31	69.96
854.479	65.94
854.648	52.6
854.818	47.49
854.987	36.41
855.156	27.03
855.325	22.6
855.494	14.72
855.663	7.48
855.832	-4.88
856.001	-6.07
856.171	1.02
856.34	5.03
856.509	1.89
856.678	1.97
856.847	14.36
857.016	19.89
857.185	18.2
857.353	17.06
857.522	21.78
857.691	31.9
857.86	23.29
858.029	21.7
858.198	29.91
858.367	30.72
858.535	24.76
858.704	24.26
858.873	19.72
859.042	18.81
859.21	23.54
859.379	17.47
859.548	2.99
859.717	10.08
859.885	12.91
860.054	15.51
860.222	11.96
860.391	19.6
860.56	18.55
860.728	18.74
860.897	22.43
861.065	18.42
861.234	20.46
861.402	16.26
861.571	20.16
861.739	21.23
861.908	16.41
862.076	20.65
862.244	28.08
862.413	31.8
862.581	25.7
862.749	31.59
862.918	39.83
863.086	44.08
863.254	54.11
863.423	57.56
863.591	51.86
863.759	47.4
863.927	49.2
864.096	42.19
864.264	31.94
864.432	33.17
864.6	39.87
864.768	37.41
864.936	35.31
865.104	38.56
865.272	42.15
865.44	44.24
865.608	46.79
865.776	38.29
865.944	35.89
866.112	39.24
866.28	49.61
866.448	44.87
866.616	51.64
866.784	48.46
866.952	40.93
867.12	40.71
867.288	45.68
867.455	50.82
867.623	51.81
867.791	52.51
867.959	48.97
868.127	49.47
868.294	46.49
868.462	46.58
868.63	46.04
868.797	49.59
868.965	51.88
869.133	46.9
869.3	38.74
869.468	41.55
869.636	49.47
869.803	53.93
869.971	57.4
870.138	51.35
870.306	42.65
870.473	35.26
870.641	33.35
870.808	21.88
870.975	23.5
871.143	13.39
871.31	10.66
871.478	6.6
871.645	-0.95
871.812	-11.35
871.98	-12.32
872.147	12.75
872.314	16.9
872.482	21.17
872.649	32.04
872.816	33.59
872.983	44.13
873.15	40.4
873.318	27.27
873.485	35.79
873.652	32.61
873.819	35.68
873.986	23.3
874.153	22.09
874.32	18.78
874.487	13.58
874.654	8.49
874.821	6.67
874.988	6.48
875.155	21.89
875.322	19.09
875.489	17.75
875.656	9.99
875.823	13.65
875.99	21.11
876.157	17.12
876.324	19.86
876.49	19.7
876.657	27.64
876.824	27.28
876.991	20.03
877.157	17.14
877.324	21.26
877.491	33.17
877.658	42.95
877.824	45.91
877.991	55.59
878.157	56.15
878.324	65.32
878.491	59.79
878.657	56.24
878.824	61.43
878.99	57.5
879.157	60.21
879.323	56.07
879.49	45.63
879.656	40.64
879.823	44.68
879.989	38.54
880.156	32.38
880.322	30.89
880.488	36.38
880.655	35.81
880.821	32.9
880.987	34.7
881.154	37.39
881.32	45.15
881.486	49.29
881.652	44.36
881.819	45.94
881.985	47.47
882.151	47.16
882.317	46.49
882.483	47.01
882.649	48.44
882.816	46.49
882.982	45.68
883.148	43.32
883.314	43.63
883.48	45.09
883.646	45.96
883.812	45.29
883.978	43.8
884.144	44.64
884.31	45
884.476	44.69
884.642	44.72
884.807	44.43
884.973	45.14
885.139	45.63
885.305	42.95
885.471	42.51
885.637	43.39
885.802	44.81
885.968	43.56
886.134	43.43
886.3	44.55
886.465	46.02
886.631	44.6
886.797	45
886.962	40.82
887.128	43.78
887.293	46.46
887.459	43.48
887.625	42.48
887.79	44.08
887.956	43.38
888.121	39.84
888.287	36.56
888.452	40.07
888.618	36.47
888.783	44.24
