Data from LC_211__Reflection_6.txt Node
Date: Thu Nov 19 12:29:16 EST 2015
User: robert
Spectrometer: USB4E03001
Autoset integration time: false
Trigger mode: 4
Integration Time (sec): 1.000000E-1
Scans to average: 15
Electric dark correction enabled: true
Nonlinearity correction enabled: false
Boxcar width: 5
Stray light correction enabled: false
XAxis mode: Wavelengths
Stop averaging: false
Number of Pixels in Spectrum: 3648
>>>>>Begin Spectral Data<<<<<
177.566	191.64
177.785	-515.38
178.005	257.49
178.225	131.38
178.445	133.41
178.665	74.57
178.885	43.27
179.105	-70.33
179.324	-74.68
179.544	-204.13
179.764	192.4
179.984	737.67
180.204	693.57
180.423	277.53
180.643	188.47
180.863	141.02
181.083	137.2
181.302	221.53
181.522	339.75
181.742	137.6
181.961	143.72
182.181	132.15
182.401	87.67
182.621	46.05
182.84	49.32
183.06	56.3
183.279	71.57
183.499	71.56
183.719	71.46
183.938	52.35
184.158	101.87
184.377	138.8
184.597	312.68
184.816	-218.62
185.036	-159.72
185.256	-22.11
185.475	28.4
185.695	44.34
185.914	34.8
186.134	38.11
186.353	-24.6
186.572	-189.84
186.792	-229.86
187.011	941.9
187.231	756.7
187.45	741.42
187.67	636.45
187.889	709.12
188.108	3610.55
188.328	899.1
188.547	937.46
188.766	-1860.6
188.986	-150.62
189.205	-98.87
189.424	-86.08
189.644	-102.34
189.863	-221.74
190.082	-123.21
190.302	-26.8
190.521	-37.18
190.74	-4.05
190.959	-36.29
191.178	30.44
191.398	57.17
191.617	-384.05
191.836	-682.88
192.055	-191.1
192.274	-41.52
192.494	46.09
192.713	75.02
192.932	148.56
193.151	235.03
193.37	81.62
193.589	98.27
193.808	51.12
194.027	614.91
194.246	302.88
194.465	57.75
194.685	-654.95
194.904	46.08
195.123	392.12
195.342	259.92
195.561	173.03
195.78	183.43
195.999	108.76
196.218	-365.81
196.436	10434.62
196.655	-345.64
196.874	76.54
197.093	103.96
197.312	58.23
197.531	234.08
197.75	170.77
197.969	122.35
198.188	-933.08
198.407	148.28
198.625	102.84
198.844	68.86
199.063	95.81
199.282	64.66
199.501	66.38
199.719	61.5
199.938	81.37
200.157	66.48
200.376	97.25
200.594	80.4
200.813	57.46
201.032	55.13
201.251	127.56
201.469	5.64
201.688	40.04
201.907	67.75
202.125	15.47
202.344	7.14
202.563	25.33
202.781	10.82
203	15.04
203.218	33.19
203.437	31.54
203.656	100.48
203.874	628.51
204.093	332.24
204.311	-316.5
204.53	-122.15
204.748	-41.33
204.967	-25.82
205.185	-49.96
205.404	-61.47
205.622	-53.17
205.841	-125.56
206.059	-336.66
206.278	-5159.17
206.496	-385.47
206.715	-1513.46
206.933	77.07
207.151	49.87
207.37	58.6
207.588	38.11
207.806	-18.2
208.025	-4.33
208.243	-132.79
208.461	-616.63
208.68	-848.43
208.898	-67.27
209.116	-1742.31
209.335	201.98
209.553	-72.18
209.771	13.27
209.989	-41.8
210.208	-97.6
210.426	-200.52
210.644	245.27
210.862	154.6
211.081	169.09
211.299	74.74
211.517	32.31
211.735	-866.35
211.953	25.85
212.171	99.54
212.39	107
212.608	96.91
212.826	97.09
213.044	224.98
213.262	162.79
213.48	108.69
213.698	124.18
213.916	89.93
214.134	136.68
214.352	181.35
214.57	181.33
214.788	419.37
215.006	-2960.58
215.224	-329.35
215.442	-108.77
215.66	-87.8
215.878	-128.17
216.096	-193.14
216.314	-198.67
216.532	-149.07
216.75	-110.66
216.968	-86.13
217.185	-60.36
217.403	-30.27
217.621	-22.83
217.839	-27.63
218.057	10.1
218.275	49.07
218.492	68.03
218.71	65.18
218.928	49.44
219.146	58.05
219.363	55.58
219.581	43.4
219.799	52.47
220.017	33.28
220.234	31.71
220.452	0.98
220.67	-51.84
220.887	19.19
221.105	23.77
221.323	-12.14
221.54	-24.03
221.758	-30.49
221.976	-31.33
222.193	8.9
222.411	4.7
222.629	-1.62
222.846	-0.21
223.064	-17.5
223.281	-25.61
223.499	-45.86
223.716	-29.86
223.934	-42.18
224.151	-53.53
224.369	-47.58
224.586	-66.91
224.804	-289.85
225.021	-125.98
225.239	-129.88
225.456	-60.03
225.674	-145
225.891	-61.37
226.108	-43.28
226.326	-20.39
226.543	-12.21
226.76	-35.31
226.978	-55.22
227.195	-29.78
227.413	-36.28
227.63	-30.94
227.847	-25.25
228.064	-12.75
228.282	-9.25
228.499	-6.08
228.716	-4.59
228.934	-1.57
229.151	6.63
229.368	6.73
229.585	11.75
229.802	11.76
230.02	15.75
230.237	17.02
230.454	20.02
230.671	17.64
230.888	15.46
231.105	13.42
231.323	14.21
231.54	10.49
231.757	12.43
231.974	8.65
232.191	19.24
232.408	15.55
232.625	16.43
232.842	11.6
233.059	13.49
233.276	16.49
233.493	17.48
233.71	14.02
233.927	9.32
234.144	9.48
234.361	10.04
234.578	-3.28
234.795	-11.57
235.012	-8.84
235.229	-10.92
235.446	-6.44
235.663	-11.49
235.879	-3.63
236.096	-2.83
236.313	1.63
236.53	-0.49
236.747	3.58
236.964	9.44
237.181	18.48
237.397	11.39
237.614	14.31
237.831	9.74
238.048	12.42
238.264	2.45
238.481	5.35
238.698	7.81
238.915	10.17
239.131	5.69
239.348	2.92
239.565	4.54
239.781	6.49
239.998	8.88
240.215	13.06
240.431	12.71
240.648	14.46
240.865	13.24
241.081	11.61
241.298	9.26
241.514	8.53
241.731	8.19
241.947	7.25
242.164	7.82
242.38	7.03
242.597	4.57
242.814	3.36
243.03	2.36
243.246	2.83
243.463	3.23
243.679	6.06
243.896	7.96
244.112	9.58
244.329	10.11
244.545	11.62
244.762	12.46
244.978	17
245.194	18.19
245.411	17.53
245.627	17.1
245.843	17.71
246.06	14.96
246.276	13.63
246.492	11.83
246.709	10.67
246.925	9.75
247.141	8.89
247.357	8.01
247.574	7.94
247.79	9.01
248.006	8.34
248.222	6.82
248.439	6.81
248.655	6.17
248.871	7.06
249.087	6.52
249.303	5.3
249.519	5.08
249.736	4.75
249.952	5.89
250.168	4.42
250.384	4.61
250.6	6.74
250.816	5.89
251.032	5.84
251.248	5.34
251.464	7.82
251.68	12.77
251.896	14.28
252.112	12.17
252.328	10.74
252.544	10.94
252.76	12.07
252.976	12.96
253.192	14.7
253.408	15.41
253.624	14.43
253.84	13.44
254.056	11.16
254.272	9.41
254.487	9.33
254.703	11.11
254.919	10.64
255.135	9.43
255.351	7.13
255.567	4.57
255.782	1.87
255.998	2.08
256.214	1.82
256.43	3.33
256.646	5.99
256.861	5.75
257.077	3.18
257.293	4.67
257.508	5.6
257.724	6.84
257.94	7.12
258.155	8.07
258.371	6.8
258.587	6.63
258.802	6.71
259.018	5.63
259.234	6.98
259.449	8
259.665	6.91
259.88	7.28
260.096	6.77
260.312	6.99
260.527	7.13
260.743	8.1
260.958	8.55
261.174	7.56
261.389	7.3
261.605	7.54
261.82	7.1
262.036	6.68
262.251	6.34
262.466	6.28
262.682	5.55
262.897	6.18
263.113	5.45
263.328	5.18
263.543	6.4
263.759	7.49
263.974	6.31
264.189	4.45
264.405	5.78
264.62	5.1
264.835	4.17
265.051	4.79
265.266	2.03
265.481	0.84
265.696	1.18
265.912	1.58
266.127	2.71
266.342	1.73
266.557	2.67
266.773	4.57
266.988	3.66
267.203	5.03
267.418	4.4
267.633	5.64
267.848	5.62
268.064	5.85
268.279	5.51
268.494	2.79
268.709	4.32
268.924	5.08
269.139	4.5
269.354	6.15
269.569	4.76
269.784	4.09
269.999	5.49
270.214	6.28
270.429	6.03
270.644	6.52
270.859	9.1
271.074	8.26
271.289	7.79
271.504	6.99
271.719	7.2
271.934	6.72
272.149	8.4
272.363	7.94
272.578	6.94
272.793	7.08
273.008	7.27
273.223	5.59
273.438	5.89
273.653	5.19
273.867	6.05
274.082	5.23
274.297	6.41
274.512	6.34
274.726	5.49
274.941	7.41
275.156	6
275.371	5.92
275.585	6.81
275.8	4.52
276.015	5.32
276.229	3.73
276.444	4.13
276.659	3.47
276.873	0.4
277.088	0.66
277.302	-1.37
277.517	-0.67
277.732	-1.16
277.946	-2.57
278.161	-0.34
278.375	-1.72
278.59	0.24
278.804	-0.16
279.019	0.96
279.233	4.32
279.448	3.37
279.662	4.3
279.877	3.87
280.091	4.52
280.306	7.14
280.52	6.65
280.735	8.37
280.949	8.55
281.163	8.74
281.378	7.14
281.592	5.96
281.806	6.34
282.021	7.02
282.235	6.57
282.449	5.33
282.664	3.99
282.878	5.05
283.092	4.97
283.307	5.76
283.521	5
283.735	5.17
283.949	5.72
284.164	6.54
284.378	5.54
284.592	7.65
284.806	9.19
285.02	8.72
285.234	8.51
285.449	8.14
285.663	6.73
285.877	6.67
286.091	7.71
286.305	8.06
286.519	7.8
286.733	7.88
286.947	6.83
287.161	5.07
287.375	5.83
287.589	4.54
287.803	3.85
288.017	4.53
288.231	4.91
288.445	4.33
288.659	3.59
288.873	3.92
289.087	5.69
289.301	5.32
289.515	5.41
289.729	4.39
289.943	4.8
290.157	6.59
290.371	6.33
290.584	6.66
290.798	7.02
291.012	7.65
291.226	6.89
291.44	6.57
291.654	7.51
291.867	8.83
292.081	9.69
292.295	10.26
292.509	10.51
292.722	11.15
292.936	10.48
293.15	12.19
293.364	10.56
293.577	10.79
293.791	9.64
294.005	10.1
294.218	9.58
294.432	11.65
294.645	12.31
294.859	10.08
295.073	8.83
295.286	9.74
295.5	8.57
295.713	10.92
295.927	11.06
296.14	11.71
296.354	11.24
296.568	10.98
296.781	9.4
296.994	8.12
297.208	7.84
297.421	8.79
297.635	8.9
297.848	9.2
298.062	8.78
298.275	9.3
298.489	8.48
298.702	8.11
298.915	8.47
299.129	9.84
299.342	11.18
299.555	13.95
299.769	14.71
299.982	14.93
300.195	14.57
300.409	13.24
300.622	13.77
300.835	14.5
301.048	15.46
301.262	16.46
301.475	15.17
301.688	15.04
301.901	14.24
302.115	14.08
302.328	14.87
302.541	15.44
302.754	16.18
302.967	13.99
303.18	14.41
303.393	14.56
303.607	14.01
303.82	15.53
304.033	14.87
304.246	15.86
304.459	15.1
304.672	15.67
304.885	14.84
305.098	13.97
305.311	15.7
305.524	16.33
305.737	16.25
305.95	16.96
306.163	15.52
306.376	16.68
306.589	14.38
306.802	14.17
307.015	11.69
307.228	12.07
307.44	13.06
307.653	12.55
307.866	11.23
308.079	11.29
308.292	10.94
308.505	11.78
308.718	12.4
308.93	13.36
309.143	13.27
309.356	13.58
309.569	13.62
309.781	14.36
309.994	14.53
310.207	15.37
310.42	14.06
310.632	13.98
310.845	14.17
311.058	12.78
311.27	13.68
311.483	14.2
311.696	13.96
311.908	14.7
312.121	13.97
312.333	13.48
312.546	12.58
312.759	13.27
312.971	13.39
313.184	12.98
313.396	13.45
313.609	13.28
313.821	12.52
314.034	13.8
314.246	12.82
314.459	12.76
314.671	14.94
314.884	15.32
315.096	15.74
315.309	15.68
315.521	16.25
315.733	16.37
315.946	15.08
316.158	15.13
316.371	14.84
316.583	15.55
316.795	15.72
317.008	13.74
317.22	14.05
317.432	13.55
317.644	12.67
317.857	12.03
318.069	13.03
318.281	13.89
318.494	13.91
318.706	13.33
318.918	12.97
319.13	13.51
319.342	14.58
319.555	14.92
319.767	15.5
319.979	16.37
320.191	16.8
320.403	17.68
320.615	16.73
320.827	16.73
321.039	17.56
321.252	18.56
321.464	17.57
321.676	17.57
321.888	16.84
322.1	15.05
322.312	14.89
322.524	13.97
322.736	13.28
322.948	13.53
323.16	13.01
323.372	12.65
323.584	12.55
323.796	12.52
324.007	12.47
324.219	12.94
324.431	14.36
324.643	14.54
324.855	14.8
325.067	14.1
325.279	14.02
325.491	15.52
325.702	15.16
325.914	14.39
326.126	15.77
326.338	16.2
326.55	16.46
326.761	16.84
326.973	17.7
327.185	17.67
327.396	17.47
327.608	17.36
327.82	17.62
328.032	18.49
328.243	20.16
328.455	20.14
328.666	21.01
328.878	22.53
329.09	22.14
329.301	22.52
329.513	23.15
329.725	23.3
329.936	24.18
330.148	24.16
330.359	25.09
330.571	24.84
330.782	24.3
330.994	23.83
331.205	21.89
331.417	22.65
331.628	22.19
331.84	22.85
332.051	23.52
332.262	23.77
332.474	23.74
332.685	24.66
332.897	23.7
333.108	24.85
333.319	26.05
333.531	26.65
333.742	27.09
333.953	26.82
334.165	26.33
334.376	27.34
334.587	28.88
334.799	29.42
335.01	27.49
335.221	29.31
335.432	29.37
335.644	28.82
335.855	29.07
336.066	29.66
336.277	30.16
336.488	30.77
336.7	30.41
336.911	29.5
337.122	29.31
337.333	30.38
337.544	29.42
337.755	30.03
337.966	29.81
338.177	30.54
338.388	30.57
338.599	30.35
338.811	30.52
339.022	30.68
339.233	31.06
339.444	31.09
339.655	30.48
339.866	30.75
340.076	30.25
340.287	30.83
340.498	30.14
340.709	30.09
340.92	30.53
341.131	30.97
341.342	30.27
341.553	29.82
341.764	30.34
341.975	30.91
342.185	30.91
342.396	30.88
342.607	30.54
342.818	31.14
343.029	30.27
343.239	29.64
343.45	29.15
343.661	29.54
343.872	29.85
344.082	29.43
344.293	29.32
344.504	31.49
344.714	31.27
344.925	31.43
345.136	31.4
345.346	32.49
345.557	33.52
345.768	33.8
345.978	33.84
346.189	33.26
346.399	32.37
346.61	32.44
346.821	30.26
347.031	30.23
347.242	29.86
347.452	29.25
347.663	28.63
347.873	29.1
348.084	28.71
348.294	29.51
348.504	29.98
348.715	31.05
348.925	31.44
349.136	31.43
349.346	31.51
349.557	30.97
349.767	31.47
349.977	31.09
350.188	29.93
350.398	30.37
350.608	29.29
350.819	29.21
351.029	28.61
351.239	28.41
351.449	28.38
351.66	28.49
351.87	29.31
352.08	29.32
352.29	29.92
352.501	30.06
352.711	30.45
352.921	30.69
353.131	30.54
353.341	31.13
353.552	30.57
353.762	30.4
353.972	30.44
354.182	31.08
354.392	30.81
354.602	31.06
354.812	30.89
355.022	30.49
355.232	31.17
355.442	31.52
355.652	31.54
355.862	31.57
356.072	31.41
356.282	31.26
356.492	30.13
356.702	30.51
356.912	30.53
357.122	29.98
357.332	29.64
357.542	28.57
357.752	28.4
357.962	28.1
358.171	28.06
358.381	28.17
358.591	27.94
358.801	28.59
359.011	27.96
359.221	27.35
359.43	28.11
359.64	28.54
359.85	29.81
360.06	29.64
360.269	30.03
360.479	30.45
360.689	30.5
360.899	30.43
361.108	30.49
361.318	31.13
361.528	31.19
361.737	31.42
361.947	31.34
362.156	30.89
362.366	30.86
362.576	30.19
362.785	30.1
362.995	30.51
363.204	30.55
363.414	29.77
363.623	28.96
363.833	28.73
364.042	27.61
364.252	27.5
364.461	27.53
364.671	27.71
364.88	27.35
365.09	26.78
365.299	26.11
365.509	25.85
365.718	25.88
365.927	26.61
366.137	26.73
366.346	27
366.555	26.22
366.765	25.87
366.974	25.5
367.183	25.72
367.393	25.63
367.602	25.83
367.811	25.75
368.021	25.51
368.23	24.87
368.439	25.21
368.648	25.12
368.857	25.98
369.067	25.25
369.276	25.54
369.485	25.62
369.694	26.01
369.903	26.31
370.112	26.91
370.321	27.39
370.531	27.62
370.74	27.24
370.949	27.74
371.158	27.2
371.367	27.79
371.576	27.17
371.785	27.05
371.994	26.69
372.203	26.19
372.412	25.86
372.621	25.5
372.83	25.4
373.039	25.07
373.248	25.03
373.457	25.22
373.666	24.89
373.874	24.54
374.083	24.44
374.292	24.41
374.501	24.24
374.71	24.01
374.919	24.28
375.128	23.75
375.336	24.21
375.545	23.94
375.754	23.61
375.963	23.87
376.171	24.63
376.38	25.09
376.589	24.86
376.798	24.46
377.006	24.66
377.215	24.28
377.424	24.31
377.632	23.83
377.841	24.1
378.05	24.12
378.258	23.75
378.467	23.53
378.675	23.17
378.884	23.38
379.093	23.46
379.301	23.35
379.51	23.46
379.718	23.75
379.927	24.05
380.135	23.21
380.344	22.9
380.552	23.32
380.761	23.24
380.969	23.44
381.177	23.73
381.386	24.52
381.594	24.34
381.803	24.37
382.011	24.21
382.219	23.81
382.428	24.02
382.636	23.96
382.845	23.59
383.053	23.38
383.261	23.07
383.469	22.62
383.678	21.69
383.886	21.63
384.094	21.36
384.302	21.15
384.511	21
384.719	21.11
384.927	20.96
385.135	20.73
385.343	20.95
385.552	20.52
385.76	20.35
385.968	20.43
386.176	20.3
386.384	20.09
386.592	19.98
386.8	20.12
387.008	20.1
387.216	20.46
387.424	20.82
387.633	20.81
387.841	21.1
388.049	21.11
388.257	20.87
388.465	20.93
388.672	21.33
388.88	21.31
389.088	21.19
389.296	21.16
389.504	20.8
389.712	20.56
389.92	20.41
390.128	20.35
390.336	20.04
390.544	20.47
390.751	20.31
390.959	20.05
391.167	20.3
391.375	20.41
391.583	20.13
391.79	20.33
391.998	20.36
392.206	20.01
392.414	19.84
392.621	20.07
392.829	20.21
393.037	20.38
393.244	20.26
393.452	20.1
393.66	19.86
393.867	19.84
394.075	19.53
394.283	19.42
394.49	19.5
394.698	19.73
394.905	19.55
395.113	19.23
395.32	18.67
395.528	18.43
395.735	18.18
395.943	18.26
396.15	18.19
396.358	18.42
396.565	18.31
396.773	18.27
396.98	18.02
397.188	18.22
397.395	18.18
397.602	18.41
397.81	18.44
398.017	18.63
398.225	18.65
398.432	18.71
398.639	18.57
398.847	18.39
399.054	18.39
399.261	18.53
399.468	18.35
399.676	18.16
399.883	18.25
400.09	18.39
400.297	18.42
400.505	18.12
400.712	18.08
400.919	17.98
401.126	18.1
401.333	18.3
401.54	17.98
401.748	18.35
401.955	18.59
402.162	18.67
402.369	18.88
402.576	18.83
402.783	19
402.99	18.95
403.197	19.16
403.404	18.7
403.611	18.49
403.818	18.78
404.025	18.58
404.232	18.46
404.439	18.28
404.646	18.01
404.853	17.97
405.06	17.81
405.267	17.8
405.474	17.71
405.681	17.81
405.887	17.7
406.094	17.45
406.301	17.38
406.508	17.07
406.715	17.08
406.922	17.3
407.128	17.24
407.335	17.11
407.542	17.16
407.749	17.03
407.955	17.46
408.162	17.48
408.369	17.73
408.575	17.55
408.782	17.87
408.989	17.64
409.195	17.3
409.402	17.15
409.609	17.51
409.815	17.52
410.022	17.53
410.228	17.48
410.435	17.32
410.642	17.21
410.848	17.35
411.055	17.25
411.261	17.35
411.468	17.42
411.674	17.63
411.881	17.72
412.087	17.76
412.294	17.89
412.5	17.89
412.706	18.09
412.913	17.89
413.119	17.96
413.326	18.2
413.532	18.25
413.738	18.22
413.945	17.78
414.151	17.45
414.357	17.42
414.564	17.34
414.77	17.14
414.976	17.24
415.182	17.37
415.389	17.23
415.595	16.81
415.801	16.85
416.007	17.01
416.214	17.08
416.42	17.26
416.626	17.24
416.832	17.09
417.038	17.06
417.244	17.24
417.45	17.23
417.657	17.14
417.863	17.33
418.069	17.23
418.275	17.1
418.481	17.13
418.687	17.22
418.893	17.11
419.099	17.16
419.305	17.21
419.511	16.91
419.717	16.92
419.923	17.03
420.129	17.01
420.335	16.94
420.541	16.9
420.746	17.07
420.952	17
421.158	17.06
421.364	16.94
421.57	16.92
421.776	16.99
421.982	16.96
422.187	16.72
422.393	16.69
422.599	16.68
422.805	16.78
423.01	16.58
423.216	16.46
423.422	16.41
423.628	16.46
423.833	16.44
424.039	16.55
424.245	16.44
424.45	16.59
424.656	16.55
424.862	16.59
425.067	16.52
425.273	16.58
425.478	16.6
425.684	16.67
425.889	16.79
426.095	16.8
426.301	16.74
426.506	16.96
426.712	16.9
426.917	16.84
427.123	16.93
427.328	16.99
427.533	16.98
427.739	17.09
427.944	17.07
428.15	16.86
428.355	16.83
428.561	16.73
428.766	16.6
428.971	16.69
429.177	16.81
429.382	16.82
429.587	16.8
429.793	16.79
429.998	16.66
430.203	16.42
430.408	16.45
430.614	16.52
430.819	16.4
431.024	16.23
431.229	16.26
431.434	16.18
431.64	15.98
431.845	15.95
432.05	15.96
432.255	15.88
432.46	16.11
432.665	16.1
432.87	16.12
433.076	16.23
433.281	16.29
433.486	16.47
433.691	16.45
433.896	16.53
434.101	16.5
434.306	16.7
434.511	16.62
434.716	16.43
434.921	16.4
435.126	16.43
435.331	16.38
435.535	16.29
435.74	16.06
435.945	16.04
436.15	16.28
436.355	16.44
436.56	16.01
436.765	16.21
436.97	16.44
437.174	16.61
437.379	16.37
437.584	16.5
437.789	16.61
437.993	16.76
438.198	16.85
438.403	16.73
438.608	16.58
438.812	16.75
439.017	16.84
439.222	16.93
439.426	16.72
439.631	16.8
439.836	16.75
440.04	16.76
440.245	16.71
440.45	16.68
440.654	16.72
440.859	16.62
441.063	16.64
441.268	16.5
441.472	16.29
441.677	16.34
441.881	16.41
442.086	16.38
442.29	16.4
442.495	16.38
442.699	16.36
442.904	16.18
443.108	16.25
443.312	16.22
443.517	16.19
443.721	16.16
443.925	16.24
444.13	16.19
444.334	16.18
444.538	16.24
444.743	16.3
444.947	16.4
445.151	16.34
445.356	16.35
445.56	16.37
445.764	16.41
445.968	16.53
446.173	16.59
446.377	16.54
446.581	16.48
446.785	16.44
446.989	16.38
447.193	16.29
447.398	16.44
447.602	16.41
447.806	16.51
448.01	16.51
448.214	16.53
448.418	16.46
448.622	16.49
448.826	16.46
449.03	16.44
449.234	16.33
449.438	16.37
449.642	16.26
449.846	16.46
450.05	16.32
450.254	16.24
450.458	16.08
450.662	16.06
450.866	16.09
451.069	16.4
451.273	16.26
451.477	16.37
451.681	16.33
451.885	16.24
452.089	16.24
452.292	16.28
452.496	16.48
452.7	16.45
452.904	16.39
453.107	16.38
453.311	16.22
453.515	16.31
453.719	16.27
453.922	16.21
454.126	16.16
454.33	16.05
454.533	15.91
454.737	15.56
454.94	15.77
455.144	15.99
455.348	16
455.551	15.88
455.755	15.7
455.958	15.74
456.162	15.75
456.365	15.76
456.569	15.82
456.772	16.02
456.976	16.24
457.179	16.18
457.383	15.98
457.586	15.91
457.79	15.86
457.993	16.11
458.196	16
458.4	16.04
458.603	16.11
458.807	15.94
459.01	15.94
459.213	15.84
459.417	15.87
459.62	15.77
459.823	15.87
460.026	15.96
460.23	15.85
460.433	15.91
460.636	15.9
460.839	15.68
461.042	15.74
461.246	15.65
461.449	15.71
461.652	15.67
461.855	15.67
462.058	15.66
462.261	15.69
462.464	15.77
462.668	15.71
462.871	15.68
463.074	15.98
463.277	15.82
463.48	15.84
463.683	15.95
463.886	16.03
464.089	16.32
464.292	16.1
464.495	15.87
464.698	15.69
464.901	15.85
465.104	15.91
465.306	15.94
465.509	16.14
465.712	16.11
465.915	16.02
466.118	15.83
466.321	15.82
466.524	15.95
466.726	16.13
466.929	16.18
467.132	16.19
467.335	16.26
467.538	16.28
467.74	16.35
467.943	16.34
468.146	16.24
468.348	16.24
468.551	16.22
468.754	16.14
468.956	16.02
469.159	16
469.362	16.03
469.564	15.94
469.767	15.77
469.969	15.68
470.172	15.63
470.375	15.72
470.577	15.62
470.78	15.52
470.982	15.81
471.185	15.83
471.387	15.85
471.59	15.73
471.792	15.71
471.995	15.95
472.197	16.08
472.399	16.19
472.602	16.32
472.804	16.4
473.007	16.4
473.209	16.15
473.411	16.22
473.614	16.34
473.816	16.32
474.018	16.36
474.22	16.15
474.423	16.04
474.625	16.02
474.827	16.13
475.03	16.09
475.232	15.92
475.434	15.9
475.636	15.82
475.838	15.91
476.04	15.97
476.243	16.07
476.445	16.25
476.647	16.24
476.849	16.22
477.051	16.07
477.253	16.11
477.455	16.11
477.657	16.22
477.859	16.25
478.061	16.12
478.263	16.01
478.465	16.01
478.667	15.87
478.869	15.83
479.071	15.83
479.273	15.83
479.475	15.66
479.677	15.86
479.879	15.83
480.081	15.79
480.283	15.79
480.485	15.92
480.686	15.83
480.888	15.83
481.09	15.79
481.292	15.74
481.494	15.74
481.695	15.9
481.897	15.76
482.099	15.82
482.301	15.92
482.502	15.94
482.704	16
482.906	16.02
483.107	16.08
483.309	16.06
483.511	16.12
483.712	16.07
483.914	16.1
484.115	16.13
484.317	16.12
484.519	16.04
484.72	16.03
484.922	15.95
485.123	15.91
485.325	15.87
485.526	15.91
485.728	15.86
485.929	15.86
486.131	15.84
486.332	15.76
486.534	15.68
486.735	15.75
486.936	15.77
487.138	15.81
487.339	15.84
487.541	15.86
487.742	15.91
487.943	15.96
488.144	16.03
488.346	15.98
488.547	16.09
488.748	16.17
488.95	16.13
489.151	16.1
489.352	16.05
489.553	16.08
489.755	16.04
489.956	16.01
490.157	15.93
490.358	15.89
490.559	15.91
490.76	15.9
490.961	15.78
491.163	15.78
491.364	15.79
491.565	15.85
491.766	15.91
491.967	15.96
492.168	15.94
492.369	15.99
492.57	15.97
492.771	16.06
492.972	15.96
493.173	16.1
493.374	16.23
493.575	16.27
493.776	16.27
493.976	16.25
494.177	16.13
494.378	15.99
494.579	15.9
494.78	16
494.981	15.91
495.182	16.06
495.382	16.01
495.583	15.99
495.784	16.02
495.985	16.08
496.185	15.9
496.386	16.08
496.587	16.31
496.788	16.37
496.988	16.41
497.189	16.48
497.39	16.52
497.59	16.51
497.791	16.41
497.992	16.43
498.192	16.35
498.393	16.52
498.593	16.49
498.794	16.46
498.994	16.5
499.195	16.37
499.395	16.39
499.596	16.29
499.796	16.28
499.997	16.33
500.197	16.44
500.398	16.51
500.598	16.56
500.799	16.59
500.999	16.63
501.199	16.67
501.4	16.84
501.6	16.67
501.801	16.77
502.001	16.86
502.201	17.01
502.402	16.91
502.602	16.93
502.802	16.94
503.002	16.99
503.203	17
503.403	16.96
503.603	16.93
503.803	17.11
504.003	17.28
504.204	17.13
504.404	17.15
504.604	17.25
504.804	17.39
505.004	17.27
505.204	17.33
505.404	17.33
505.604	17.47
505.804	17.53
506.005	17.59
506.205	17.39
506.405	17.52
506.605	17.44
506.805	17.51
507.005	17.42
507.204	17.54
507.404	17.55
507.604	17.72
507.804	17.6
508.004	17.55
508.204	17.58
508.404	17.62
508.604	17.65
508.804	17.89
509.003	17.9
509.203	18.01
509.403	17.97
509.603	18.08
509.803	18.01
510.002	18.08
510.202	18.11
510.402	18.09
510.602	18.23
510.801	18.33
511.001	18.28
511.201	18.39
511.4	18.47
511.6	18.58
511.8	18.59
511.999	18.68
512.199	18.72
512.398	18.84
512.598	18.96
512.797	19.04
512.997	19.02
513.197	19.09
513.396	19.18
513.596	19.23
513.795	19.12
513.994	19.08
514.194	19.02
514.393	18.96
514.593	19.05
514.792	18.98
514.992	18.98
515.191	19.03
515.39	18.99
515.59	18.86
515.789	18.85
515.988	19.24
516.188	19.38
516.387	19.61
516.586	19.68
516.786	19.84
516.985	20
517.184	20.12
517.383	20.25
517.582	20.38
517.782	20.51
517.981	20.53
518.18	20.52
518.379	20.64
518.578	20.56
518.777	20.64
518.976	20.64
519.176	20.65
519.375	20.59
519.574	20.57
519.773	20.47
519.972	20.58
520.171	20.67
520.37	20.71
520.569	20.7
520.768	20.84
520.967	20.9
521.166	20.86
521.365	20.99
521.564	21.16
521.762	21.23
521.961	21.42
522.16	21.34
522.359	21.47
522.558	21.46
522.757	21.51
522.956	21.51
523.154	21.77
523.353	21.94
523.552	21.94
523.751	21.94
523.949	22.14
524.148	22.11
524.347	22.17
524.546	22.06
524.744	22.05
524.943	22.05
525.142	22.13
525.34	22.09
525.539	22.04
525.737	22.15
525.936	22.2
526.135	22.23
526.333	22.34
526.532	22.39
526.73	22.59
526.929	22.65
527.127	22.69
527.326	22.75
527.524	22.8
527.723	22.9
527.921	22.89
528.12	22.93
528.318	22.96
528.516	23.02
528.715	23.07
528.913	22.99
529.112	23.05
529.31	23.09
529.508	23.08
529.707	23.09
529.905	23.1
530.103	23.16
530.301	23.22
530.5	23.23
530.698	23.28
530.896	23.33
531.094	23.41
531.293	23.41
531.491	23.52
531.689	23.65
531.887	23.75
532.085	23.78
532.283	23.88
532.481	23.91
532.68	23.92
532.878	23.93
533.076	24
533.274	24.05
533.472	24.11
533.67	24.14
533.868	24.11
534.066	24.16
534.264	24.24
534.462	24.2
534.66	24.21
534.858	24.21
535.056	24.29
535.253	24.26
535.451	24.38
535.649	24.56
535.847	24.56
536.045	24.65
536.243	24.64
536.441	24.62
536.638	24.64
536.836	24.58
537.034	24.79
537.232	24.73
537.43	24.79
537.627	24.8
537.825	24.71
538.023	24.71
538.22	24.77
538.418	24.88
538.616	24.88
538.813	25.03
539.011	25.27
539.209	25.25
539.406	25.34
539.604	25.47
539.801	25.52
539.999	25.62
540.196	25.71
540.394	25.8
540.591	25.86
540.789	25.94
540.986	26.01
541.184	26.04
541.381	26.09
541.579	26.18
541.776	26.11
541.974	26.12
542.171	26.17
542.368	26.21
542.566	26.26
542.763	26.32
542.96	26.41
543.158	26.39
543.355	26.48
543.552	26.38
543.75	26.38
543.947	26.52
544.144	26.58
544.341	26.65
544.539	26.73
544.736	26.82
544.933	26.82
545.13	26.82
545.327	26.9
545.524	26.82
545.722	27.15
545.919	27.28
546.116	27.32
546.313	27.51
546.51	27.48
546.707	27.5
546.904	27.5
547.101	27.54
547.298	27.64
547.495	27.75
547.692	27.85
547.889	27.72
548.086	27.73
548.283	27.79
548.48	27.58
548.677	27.68
548.874	27.63
549.07	27.62
549.267	27.63
549.464	27.66
549.661	27.54
549.858	27.5
550.055	27.69
550.251	27.8
550.448	27.81
550.645	28.07
550.842	28.23
551.038	28.53
551.235	28.67
551.432	28.75
551.628	28.82
551.825	29.02
552.022	29.15
552.218	29.26
552.415	29.21
552.612	29.24
552.808	29.38
553.005	29.26
553.201	29.2
553.398	29.27
553.594	29.25
553.791	29.03
553.987	29.14
554.184	29.15
554.38	29.21
554.577	29.24
554.773	29.43
554.97	29.32
555.166	29.5
555.362	29.73
555.559	29.72
555.755	30.01
555.952	30.41
556.148	30.46
556.344	30.68
556.541	30.7
556.737	30.81
556.933	30.84
557.129	31.04
557.326	31.2
557.522	31.38
557.718	31.51
557.914	31.35
558.11	31.12
558.307	31.16
558.503	31.15
558.699	31.27
558.895	31.38
559.091	31.43
559.287	31.36
559.483	31.29
559.679	31.32
559.876	31.24
560.072	31.35
560.268	31.79
560.464	31.76
560.66	32.01
560.856	32
561.052	32.11
561.247	32.08
561.443	32.36
561.639	32.52
561.835	32.31
562.031	32.3
562.227	32.43
562.423	32.39
562.619	32.49
562.815	32.38
563.01	32.57
563.206	32.67
563.402	32.84
563.598	32.78
563.793	32.72
563.989	32.69
564.185	33.04
564.381	32.99
564.576	33.1
564.772	33.13
564.968	33.23
565.163	33.33
565.359	33.28
565.555	33.3
565.75	33.5
565.946	33.69
566.141	33.95
566.337	33.98
566.532	34.1
566.728	34.14
566.923	34.23
567.119	34.35
567.314	34.14
567.51	34.33
567.705	34.21
567.901	34.14
568.096	34.31
568.292	34.47
568.487	34.45
568.682	34.47
568.878	34.39
569.073	34.43
569.268	34.2
569.464	34.33
569.659	34.35
569.854	34.64
570.05	34.6
570.245	34.73
570.44	34.76
570.635	34.69
570.831	34.89
571.026	35.15
571.221	35.19
571.416	35.47
571.611	35.51
571.806	35.52
572.002	35.6
572.197	35.66
572.392	35.47
572.587	35.42
572.782	35.69
572.977	35.57
573.172	35.5
573.367	35.51
573.562	35.62
573.757	35.57
573.952	35.69
574.147	35.68
574.342	35.77
574.537	35.79
574.732	35.9
574.927	35.85
575.121	36.07
575.316	36.16
575.511	36.33
575.706	36.47
575.901	36.6
576.096	36.54
576.29	36.72
576.485	36.85
576.68	36.88
576.875	36.9
577.069	37.05
577.264	37.19
577.459	37.26
577.654	37.3
577.848	37.09
578.043	37.25
578.238	37.21
578.432	37.2
578.627	36.91
578.821	37.19
579.016	37.28
579.21	37.22
579.405	37.16
579.6	37.19
579.794	37.28
579.989	37.54
580.183	37.64
580.378	37.69
580.572	37.72
580.766	38.21
580.961	38.3
581.155	38.02
581.35	38.23
581.544	38.16
581.738	38.2
581.933	38.01
582.127	37.99
582.321	38.07
582.516	38.26
582.71	38.2
582.904	37.94
583.099	37.95
583.293	38.19
583.487	37.86
583.681	38.02
583.875	37.89
584.07	38.1
584.264	37.96
584.458	37.75
584.652	37.81
584.846	38
585.04	38.24
585.234	38.09
585.428	38.08
585.623	38.26
585.817	38.06
586.011	38.29
586.205	38.5
586.399	38.9
586.593	39.12
586.787	39.34
586.981	39.38
587.174	39.42
587.368	39.36
587.562	39.57
587.756	39.62
587.95	39.82
588.144	39.71
588.338	39.57
588.532	39.29
588.725	39.22
588.919	38.96
589.113	39.11
589.307	39.21
589.501	39.29
589.694	39.16
589.888	39.32
590.082	39.47
590.275	39.74
590.469	39.79
590.663	40
590.856	40.07
591.05	40.42
591.244	40.48
591.437	40.56
591.631	40.87
591.824	41.06
592.018	41.02
592.212	40.95
592.405	40.88
592.599	40.97
592.792	40.95
592.986	40.98
593.179	40.83
593.372	40.78
593.566	40.65
593.759	40.72
593.953	41.06
594.146	41.03
594.339	41.18
594.533	41.23
594.726	41.45
594.92	41.72
595.113	41.96
595.306	41.94
595.499	42.08
595.693	42.39
595.886	42.14
596.079	41.99
596.272	42.14
596.466	42.16
596.659	42.14
596.852	42.17
597.045	41.76
597.238	41.68
597.431	41.94
597.624	41.95
597.818	41.71
598.011	41.88
598.204	41.82
598.397	41.62
598.59	41.55
598.783	41.54
598.976	41.28
599.169	41.69
599.362	41.76
599.555	41.52
599.748	41.34
599.941	41.45
600.134	41.63
600.326	41.59
600.519	41.91
600.712	42
600.905	41.99
601.098	42.1
601.291	42.12
601.483	42.2
601.676	42.49
601.869	42.58
602.062	42.59
602.255	42.61
602.447	42.75
602.64	43.02
602.833	43.2
603.025	43.44
603.218	43.43
603.411	43.4
603.603	43.35
603.796	43.2
603.989	43.19
604.181	43.39
604.374	43.33
604.566	43.33
604.759	43.13
604.951	42.99
605.144	42.9
605.336	42.98
605.529	42.87
605.721	42.92
605.914	42.94
606.106	43.01
606.299	42.96
606.491	42.8
606.683	42.99
606.876	43.14
607.068	43.08
607.26	43.09
607.453	42.94
607.645	43.12
607.837	42.94
608.03	43.17
608.222	43.24
608.414	43.22
608.606	43.43
608.799	43.42
608.991	43.19
609.183	43.18
609.375	43.14
609.567	43.25
609.759	43.34
609.952	43.52
610.144	43.49
610.336	43.34
610.528	43.33
610.72	43.32
610.912	43.28
611.104	43.43
611.296	43.62
611.488	43.95
611.68	44.14
611.872	44.08
612.064	44.11
612.256	43.99
612.448	43.93
612.64	44.01
612.832	44.17
613.023	43.91
613.215	43.85
613.407	43.95
613.599	43.8
613.791	43.74
613.983	43.6
614.174	43.7
614.366	43.85
614.558	44.16
614.75	43.89
614.941	43.8
615.133	44.03
615.325	44.32
615.516	44.14
615.708	44
615.9	44.22
616.091	44.65
616.283	44.49
616.475	44.54
616.666	44.54
616.858	44.75
617.049	44.76
617.241	44.9
617.432	44.75
617.624	44.74
617.815	44.92
618.007	44.72
618.198	44.45
618.39	44.75
618.581	44.35
618.773	44.41
618.964	44.43
619.155	44.58
619.347	44.61
619.538	44.66
619.729	44.88
619.921	44.86
620.112	45.26
620.303	45.34
620.494	45.16
620.686	45.33
620.877	45.18
621.068	45.3
621.259	45.25
621.451	45.41
621.642	45.34
621.833	45.46
622.024	45.23
622.215	44.92
622.406	44.84
622.597	44.99
622.788	45.05
622.98	45.26
623.171	45.17
623.362	45.17
623.553	45.02
623.744	45.35
623.935	45.36
624.126	45.48
624.317	45.29
624.508	45.21
624.698	45.11
624.889	45.29
625.08	45.39
625.271	45.46
625.462	45.54
625.653	45.57
625.844	45.24
626.034	45.32
626.225	45.52
626.416	45.56
626.607	45.57
626.798	45.52
626.988	45.66
627.179	45.61
627.37	45.75
627.56	45.71
627.751	45.82
627.942	46.07
628.132	45.9
628.323	45.9
628.514	45.92
628.704	45.96
628.895	45.93
629.085	45.65
629.276	45.5
629.466	45.49
629.657	45.32
629.847	44.88
630.038	44.66
630.228	44.7
630.419	44.83
630.609	44.95
630.8	45.46
630.99	45.58
631.181	45.58
631.371	45.69
631.561	45.61
631.752	45.69
631.942	45.93
632.132	46.06
632.323	46.06
632.513	45.81
632.703	45.58
632.893	45.4
633.084	45.21
633.274	45.48
633.464	45.32
633.654	45.3
633.844	45.2
634.034	45.42
634.225	45.36
634.415	45.23
634.605	45.06
634.795	45.24
634.985	45.04
635.175	45.23
635.365	45.13
635.555	45.27
635.745	45.18
635.935	45.56
636.125	45.39
636.315	45.26
636.505	45.78
636.695	45.9
636.885	45.77
637.075	45.89
637.265	46.1
637.455	46.03
637.644	46.39
637.834	46.54
638.024	46.36
638.214	46.17
638.404	46.2
638.593	45.86
638.783	46.03
638.973	46.23
639.163	46.01
639.352	45.95
639.542	45.82
639.732	45.35
639.921	45.63
640.111	45.68
640.301	46.08
640.49	46.29
640.68	46.41
640.87	46.23
641.059	46.17
641.249	46.21
641.438	46.31
641.628	46.85
641.817	47.11
642.007	47.08
642.196	47.15
642.386	46.76
642.575	46.82
642.764	47.21
642.954	47.13
643.143	47.45
643.333	47.98
643.522	47.7
643.711	47.49
643.901	47.31
644.09	47.19
644.279	47.25
644.469	47.46
644.658	47.15
644.847	46.32
645.036	46.5
645.226	46.63
645.415	45.96
645.604	46.22
645.793	46.13
645.982	45.99
646.171	45.75
646.361	45.27
646.55	45.36
646.739	45.47
646.928	45.95
647.117	45.71
647.306	45.51
647.495	45.75
647.684	45.46
647.873	45.46
648.062	45.89
648.251	45.83
648.44	46.08
648.629	46.07
648.818	45.93
649.007	45.6
649.196	46.15
649.384	45.99
649.573	45.99
649.762	46.11
649.951	46.03
650.14	45.75
650.328	45.96
650.517	45.87
650.706	45.97
650.895	46.6
651.083	46.87
651.272	46.57
651.461	46.87
651.65	47.13
651.838	47.24
652.027	47.58
652.216	47.77
652.404	47.64
652.593	47.85
652.781	47.65
652.97	47.35
653.158	47.44
653.347	47.55
653.535	47.05
653.724	47
653.912	47.12
654.101	46.92
654.289	47
654.478	46.87
654.666	46.72
654.855	47.18
655.043	47.01
655.231	46.92
655.42	47.27
655.608	47.47
655.796	47.49
655.985	47.26
656.173	46.96
656.361	46.93
656.55	47.4
656.738	47.75
656.926	47.61
657.114	47.89
657.302	47.89
657.491	47.66
657.679	47.82
657.867	47.63
658.055	48
658.243	48.13
658.431	47.93
658.619	47.96
658.807	48.12
658.996	48.07
659.184	47.71
659.372	47.9
659.56	47.88
659.748	48.02
659.936	48.25
660.124	47.93
660.311	48.09
660.499	48.06
660.687	47.96
660.875	47.7
661.063	47.65
661.251	47.59
661.439	47.58
661.627	47.71
661.814	47.45
662.002	47.39
662.19	47.36
662.378	47.61
662.565	47.56
662.753	47.64
662.941	47.48
663.129	47.44
663.316	47.86
663.504	47.5
663.692	47.22
663.879	47.57
664.067	46.98
664.254	47.46
664.442	47.16
664.63	47.6
664.817	47.85
665.005	48.01
665.192	48.22
665.38	48.14
665.567	48.08
665.755	48
665.942	47.97
666.13	48.64
666.317	48.16
666.504	48.14
666.692	47.71
666.879	47.52
667.067	47.57
667.254	47.21
667.441	47.26
667.629	47.24
667.816	47.34
668.003	47.35
668.19	47.03
668.378	47.65
668.565	47.88
668.752	48.08
668.939	47.9
669.127	48
669.314	48.35
669.501	48.39
669.688	49.06
669.875	49.32
670.062	48.9
670.249	49.14
670.436	48.62
670.623	48.42
670.81	48.52
670.997	48.75
671.184	48.45
671.371	48.27
671.558	48.36
671.745	48.19
671.932	47.94
672.119	48.37
672.306	48.51
672.493	48.78
672.68	49.09
672.867	49.27
673.054	49.21
673.24	49.34
673.427	49.67
673.614	49.43
673.801	49.33
673.988	49.32
674.174	49.26
674.361	49.28
674.548	49.1
674.734	48.77
674.921	48.46
675.108	48.25
675.294	48.35
675.481	48.16
675.668	47.98
675.854	47.72
676.041	47.88
676.227	47.91
676.414	47.58
676.601	47.39
676.787	47.46
676.974	47.4
677.16	47.56
677.347	47.3
677.533	47.54
677.719	48.23
677.906	48.39
678.092	48.35
678.279	48.29
678.465	48.33
678.651	48.76
678.838	49.32
679.024	49.45
679.21	49.61
679.397	49.9
679.583	49.64
679.769	49.64
679.955	49.59
680.142	49.79
680.328	49.83
680.514	50.23
680.7	50.09
680.886	49.64
681.073	49.75
681.259	49.57
681.445	49.74
681.631	49.63
681.817	48.96
682.003	48.87
682.189	48.73
682.375	49.01
682.561	48.71
682.747	48.77
682.933	48.88
683.119	48.98
683.305	48.97
683.491	48.68
683.677	49.02
683.863	49.51
684.049	49.8
684.235	49.68
684.42	49.08
684.606	48.84
684.792	48.95
684.978	48.88
685.164	48.62
685.349	48.81
685.535	49.19
685.721	48.6
685.907	48.78
686.092	48.81
686.278	48.88
686.464	48.76
686.649	49.13
686.835	49.26
687.021	49.99
687.206	49.87
687.392	50.11
687.577	49.66
687.763	50.09
687.948	50.09
688.134	49.71
688.319	50.13
688.505	50.56
688.69	50.07
688.876	49.65
689.061	49.32
689.247	49.75
689.432	49.33
689.618	49.33
689.803	48.89
689.988	48.92
690.174	48.92
690.359	48.14
690.544	48.19
690.73	48.56
690.915	48.62
691.1	48.02
691.285	48.1
691.471	48.31
691.656	48.64
691.841	49.24
692.026	49.37
692.211	49.88
692.396	49.96
692.582	50.29
692.767	50.15
692.952	50
693.137	50.01
693.322	49.59
693.507	49.68
693.692	49.13
693.877	48.84
694.062	48.39
694.247	48.21
694.432	48.64
694.617	48.57
694.802	48.61
694.987	48.7
695.172	49.13
695.357	49.24
695.541	48.92
695.726	49.39
695.911	49.99
696.096	49.98
696.281	49.97
696.466	50.13
696.65	49.78
696.835	49.94
697.02	50.05
697.204	50.26
697.389	50.28
697.574	50.55
697.759	50.41
697.943	50.07
698.128	50.2
698.312	50.5
698.497	50.42
698.682	50.4
698.866	50.3
699.051	50.32
699.235	49.91
699.42	49.92
699.604	50.05
699.789	49.99
699.973	49.77
700.158	49.78
700.342	49.32
700.527	49.5
700.711	49.58
700.895	49.91
701.08	50.01
701.264	50.13
701.448	49.83
701.633	49.3
701.817	49.5
702.001	50.23
702.186	50.1
702.37	50.1
702.554	49.86
702.738	49.66
702.923	49.42
703.107	48.57
703.291	48.81
703.475	49.21
703.659	49.38
703.843	49.69
704.027	49.21
704.212	49.59
704.396	49.53
704.58	50
704.764	50.37
704.948	50.05
705.132	51.06
705.316	51.45
705.5	51.3
705.684	51.52
705.868	51.61
706.052	51.53
706.235	51.26
706.419	51.18
706.603	50.97
706.787	50
706.971	50.02
707.155	49.68
707.339	49.46
707.522	49.62
707.706	49.65
707.89	48.59
708.074	48.23
708.257	48.19
708.441	48.38
708.625	48.11
708.808	49.05
708.992	49.07
709.176	49.51
709.359	48.82
709.543	48.69
709.727	48.42
709.91	49.29
710.094	49.3
710.277	50.12
710.461	49.9
710.644	49.89
710.828	49.43
711.011	49.82
711.195	49.76
711.378	50.22
711.562	50.7
711.745	50.89
711.928	50.38
712.112	51.18
712.295	50.1
712.478	50.58
712.662	50.21
712.845	50.58
713.028	50.39
713.212	50.15
713.395	50.35
713.578	50.01
713.761	49.61
713.945	49.91
714.128	49.04
714.311	49.91
714.494	49.39
714.677	50.08
714.86	50.34
715.043	50.41
715.227	50.44
715.41	49.98
715.593	50.1
715.776	50.45
715.959	50.57
716.142	50.77
716.325	50.41
716.508	50.93
716.691	50.12
716.874	50.1
717.057	49.76
717.239	49.32
717.422	48.48
717.605	48.37
717.788	48.57
717.971	47.95
718.154	48.26
718.337	48.41
718.519	48.18
718.702	48.55
718.885	48.08
719.068	49.01
719.25	49.81
719.433	51.24
719.616	50.98
719.798	50.11
719.981	50.72
720.164	51.24
720.346	50.76
720.529	50.58
720.712	50.96
720.894	51.45
721.077	50.35
721.259	50.34
721.442	50.33
721.624	50.06
721.807	51.33
721.989	50.44
722.172	50
722.354	49.88
722.537	49.64
722.719	49.35
722.901	48.88
723.084	48.6
723.266	48.26
723.448	47.66
723.631	48.19
723.813	47.61
723.995	47.97
724.178	47.75
724.36	47.8
724.542	47.77
724.724	48.43
724.907	48.08
725.089	49.07
725.271	49.15
725.453	49.34
725.635	49.05
725.817	49.74
725.999	50.72
726.181	50.34
726.364	50.27
726.546	50.55
726.728	50.07
726.91	50.95
727.092	50.28
727.274	50.19
727.456	50.69
727.638	50.82
727.819	50.46
728.001	50.39
728.183	50.81
728.365	50.49
728.547	51.15
728.729	51.63
728.911	52.12
729.093	52.15
729.274	51.83
729.456	50.97
729.638	51.39
729.82	50.87
730.001	50.56
730.183	50.35
730.365	50.59
730.546	50.61
730.728	50.58
730.91	49.93
731.091	50.04
731.273	50.42
731.455	50.64
731.636	49.42
731.818	49.65
731.999	49.69
732.181	50.29
732.362	50.33
732.544	49.91
732.725	50.23
732.907	50.4
733.088	50.99
733.27	51.02
733.451	50.96
733.633	52.63
733.814	52.32
733.995	51.83
734.177	51.12
734.358	51.13
734.539	51.56
734.721	50.98
734.902	50.62
735.083	50.16
735.264	50.4
735.446	50.71
735.627	49.84
735.808	49.56
735.989	51.05
736.17	50.69
736.351	51.25
736.533	50.87
736.714	50.87
736.895	50.93
737.076	51.6
737.257	51.21
737.438	51.04
737.619	50.4
737.8	50.93
737.981	49.82
738.162	50.8
738.343	50.19
738.524	50.19
738.705	49.46
738.886	49.4
739.067	49.67
739.247	50.42
739.428	50.3
739.609	50.65
739.79	50.45
739.971	50.72
740.151	50.57
740.332	51.49
740.513	51.72
740.694	52.26
740.874	52.34
741.055	52.46
741.236	51.5
741.417	51.96
741.597	51.36
741.778	51.77
741.958	51.42
742.139	50.97
742.32	50.15
742.5	49.11
742.681	49.19
742.861	49.32
743.042	48.25
743.222	48.34
743.403	48.24
743.583	49.63
743.764	49.3
743.944	49.08
744.124	48.74
744.305	49.2
744.485	50.23
744.666	49.49
744.846	48.98
745.026	48.07
745.207	47.78
745.387	47.66
745.567	46.51
745.747	47.6
745.928	46.9
746.108	48.28
746.288	47.8
746.468	48.3
746.648	49.16
746.829	48.66
747.009	49.92
747.189	50.35
747.369	50.7
747.549	50.82
747.729	50.36
747.909	51.03
748.089	50.02
748.269	49.69
748.449	48.07
748.629	48.15
748.809	49.29
748.989	49.21
749.169	48.45
749.349	47.76
749.529	47.2
749.709	46.47
749.889	46.79
750.068	46.6
750.248	47.55
750.428	48.38
750.608	48.1
750.788	48.31
750.967	48.35
751.147	49.2
751.327	49.52
751.507	51.31
751.686	51.5
751.866	52.21
752.046	52.85
752.225	52.07
752.405	51.92
752.585	51.54
752.764	51.11
752.944	50.26
753.123	50.42
753.303	50.71
753.482	50.62
753.662	51.38
753.841	50.82
754.021	50.97
754.2	51.75
754.38	51.48
754.559	52.05
754.739	52.27
754.918	52.08
755.097	51.77
755.277	50.6
755.456	50.44
755.635	50.04
755.815	50.03
755.994	49.95
756.173	49.36
756.352	49.83
756.532	49.41
756.711	48.67
756.89	50.07
757.069	50.36
757.248	51.12
757.427	50.51
757.607	50.98
757.786	51.38
757.965	50.24
758.144	51.11
758.323	50.42
758.502	49.98
758.681	49.63
758.86	48.8
759.039	48.88
759.218	48.51
759.397	48.47
759.576	47.46
759.755	46.64
759.934	47.73
760.113	47.24
760.291	48.18
760.47	49.03
760.649	49.38
760.828	49.28
761.007	49.91
761.186	50.55
761.364	50.46
761.543	50.97
761.722	50.17
761.901	49.81
762.079	49.02
762.258	48.87
762.437	49.02
762.615	49.44
762.794	50.15
762.972	49.56
763.151	49.25
763.33	49.23
763.508	49.23
763.687	50.41
763.865	50.78
764.044	51.43
764.222	51.14
764.401	50.44
764.579	50.38
764.758	50.08
764.936	49.94
765.114	49.92
765.293	50.2
765.471	49.84
765.65	49.17
765.828	49.49
766.006	48.72
766.184	47.68
766.363	48.4
766.541	48.25
766.719	48.17
766.898	47.55
767.076	48.09
767.254	47.47
767.432	47.52
767.61	48.93
767.788	47.57
767.967	48.13
768.145	48.83
768.323	48.67
768.501	48.43
768.679	49.27
768.857	50.36
769.035	50.29
769.213	51.73
769.391	50.27
769.569	49.43
769.747	52.03
769.925	52.5
770.103	54.25
770.281	53.63
770.459	55.02
770.636	54.51
770.814	55.12
770.992	54.45
771.17	52.78
771.348	55.02
771.525	55.22
771.703	51.96
771.881	51.33
772.059	50.22
772.236	50.32
772.414	49.36
772.592	48.53
772.769	45.99
772.947	45.28
773.125	46.24
773.302	44.25
773.48	44.21
773.657	45.72
773.835	45.32
774.013	45.14
774.19	45
774.368	44.46
774.545	45.34
774.723	45.14
774.9	45.41
775.077	44.63
775.255	45.13
775.432	45.03
775.61	43.74
775.787	45.25
775.964	45.02
776.142	46.92
776.319	48.62
776.496	48.86
776.674	50.33
776.851	51.39
777.028	50.72
777.205	51.51
777.382	51.02
777.56	53.51
777.737	53.69
777.914	52.63
778.091	50.43
778.268	49.27
778.445	47.24
778.622	47.61
778.8	47.98
778.977	49.41
779.154	57.07
779.331	57.21
779.508	55.64
779.685	54.76
779.862	55.78
780.038	57.02
780.215	57.66
780.392	58.88
780.569	60.61
780.746	60.47
780.923	60.63
781.1	53.93
781.277	53.04
781.453	52.46
781.63	51.83
781.807	53.79
781.984	53.01
782.16	50.7
782.337	51.51
782.514	50.39
782.691	49.16
782.867	47.13
783.044	45.67
783.221	47.27
783.397	47.79
783.574	46.23
783.75	45.22
783.927	45.13
784.103	46.79
784.28	44.66
784.456	42.63
784.633	42.66
784.809	42.47
784.986	43.12
785.162	40.09
785.339	38.1
785.515	39.92
785.692	39.58
785.868	38.34
786.044	38.62
786.221	38.03
786.397	40.16
786.573	40.55
786.749	42.53
786.926	43.11
787.102	46.04
787.278	47.86
787.454	49.25
787.631	49.68
787.807	50.32
787.983	50.03
788.159	50.27
788.335	50.54
788.511	52.09
788.687	52.19
788.863	53.59
789.039	52.92
789.216	51.38
789.392	49.9
789.568	49.33
789.744	47.93
789.919	47.46
790.095	47.68
790.271	45.88
790.447	44.97
790.623	46.17
790.799	44.95
790.975	43.29
791.151	44.11
791.327	45.44
791.502	46.32
791.678	48.08
791.854	50.23
792.03	50.47
792.205	51.72
792.381	51.16
792.557	50.13
792.733	49.13
792.908	49.53
793.084	47.76
793.259	47.29
793.435	46.02
793.611	47.44
793.786	44.76
793.962	44.05
794.137	43.31
794.313	44.03
794.488	45.24
794.664	46.15
794.839	47.98
795.015	50.28
795.19	51.1
795.366	52.58
795.541	49.2
795.716	49.42
795.892	50.14
796.067	49.67
796.242	48.53
796.418	47.4
796.593	49.06
796.768	49.27
796.944	48.81
797.119	48.53
797.294	48.64
797.469	51.05
797.644	51.1
797.82	52.82
797.995	55.2
798.17	54.82
798.345	53.92
798.52	51.64
798.695	51.79
798.87	51.73
799.045	53.4
799.22	53.09
799.395	53.67
799.57	53.2
799.745	51.97
799.92	49.52
800.095	51.12
800.27	53.23
800.445	51.59
800.62	50.68
800.795	49.77
800.97	46.48
801.145	46.64
801.319	46.25
801.494	46.19
801.669	45.95
801.844	49.17
802.018	48.27
802.193	46.21
802.368	48.72
802.543	47.84
802.717	49.52
802.892	51.11
803.067	47.96
803.241	47.83
803.416	47.79
803.59	46.87
803.765	44.68
803.94	44.44
804.114	45.28
804.289	46.43
804.463	47.49
804.638	47.57
804.812	46.96
804.986	49.77
805.161	48.29
805.335	48.03
805.51	49.16
805.684	49.8
805.858	48.18
806.033	47.82
806.207	44.39
806.381	44.25
806.556	45.34
806.73	42.99
806.904	41.21
807.078	41.69
807.253	43
807.427	40.32
807.601	36.93
807.775	39.05
807.949	37.27
808.123	40.12
808.298	39.88
808.472	37.2
808.646	39.87
808.82	41.67
808.994	42.4
809.168	39.64
809.342	41.3
809.516	44.98
809.69	45.56
809.864	47.51
810.038	45.58
810.212	46.25
810.385	45.55
810.559	44.41
810.733	41.73
810.907	42.35
811.081	45.57
811.255	47.42
811.428	45.33
811.602	42.11
811.776	42.96
811.95	44.08
812.123	43.94
812.297	44.46
812.471	43.04
812.644	45.46
812.818	43.43
812.992	40.59
813.165	39.14
813.339	37.83
813.512	37.99
813.686	36.77
813.86	35.72
814.033	35.43
814.207	37.39
814.38	37.23
814.554	37.81
814.727	41.17
814.9	43.18
815.074	43.43
815.247	44.85
815.421	43.88
815.594	42.91
815.767	44.43
815.941	43.91
816.114	42.43
816.287	44.84
816.46	44.89
816.634	41.71
816.807	44.5
816.98	43.88
817.153	43.92
817.327	45.01
817.5	44.68
817.673	42.45
817.846	42.05
818.019	47.07
818.192	46.97
818.365	47.6
818.538	49.77
818.711	46.56
818.884	47.09
819.057	47.2
819.23	48.06
819.403	46.56
819.576	48.34
819.749	48.33
819.922	45.83
820.095	46.64
820.268	46.21
820.441	46.04
820.614	47.67
820.786	48.91
820.959	49.28
821.132	49.54
821.305	52.37
821.477	51.65
821.65	51.66
821.823	50.81
821.996	50
822.168	50.22
822.341	50.31
822.514	50.34
822.686	50.2
822.859	50.28
823.031	50.71
823.204	50.28
823.376	50.09
823.549	49.31
823.722	49.11
823.894	49.37
824.067	49.02
824.239	48.92
824.411	48.29
824.584	47.67
824.756	47.2
824.929	46.62
825.101	46.28
825.273	46.49
825.446	47.45
825.618	48.01
825.79	47.65
825.963	47.66
826.135	47.49
826.307	47.92
826.479	48.37
826.652	48.49
826.824	48.86
826.996	49.36
827.168	49.63
827.34	49.25
827.512	49.26
827.684	49.47
827.856	49.01
828.029	48.94
828.201	48.85
828.373	48.55
828.545	48.97
828.717	47.9
828.889	46.86
829.061	46.64
829.232	47.39
829.404	46.19
829.576	46.8
829.748	46.97
829.92	46.64
830.092	46.31
830.264	46.3
830.436	46.84
830.607	48.19
830.779	49.07
830.951	50.07
831.123	48.2
831.294	49.6
831.466	48.59
831.638	48.35
831.809	49.76
831.981	50.8
832.153	51.3
832.324	48.76
832.496	48.41
832.667	46.29
832.839	43.65
833.011	44
833.182	43.74
833.354	43.45
833.525	44.04
833.697	42.19
833.868	41.75
834.039	41.91
834.211	42.65
834.382	43.13
834.554	44.88
834.725	44.5
834.896	46
835.068	45.9
835.239	47.62
835.41	47.33
835.581	47.74
835.753	48
835.924	47.62
836.095	47.14
836.266	46.17
836.438	44.39
836.609	44.97
836.78	43.22
836.951	42.6
837.122	38.6
837.293	39.25
837.464	38.49
837.635	38.28
837.806	36.86
837.977	35.2
838.148	34.65
838.319	35.33
838.49	34.15
838.661	35.22
838.832	37.81
839.003	39.41
839.174	36.72
839.345	37.65
839.516	40.36
839.687	41.23
839.857	44.92
840.028	46.36
840.199	47.47
840.37	51.36
840.54	52.66
840.711	52.67
840.882	51.22
841.053	53.84
841.223	54.99
841.394	51.16
841.564	53.44
841.735	52.51
841.906	53.05
842.076	53.92
842.247	50.49
842.417	46.31
842.588	45.19
842.758	47.34
842.929	42.76
843.099	41.06
843.27	41.27
843.44	37.37
843.611	32.98
843.781	30.3
843.951	30.53
844.122	30.98
844.292	31.36
844.462	30.99
844.633	28.23
844.803	32.71
844.973	30.86
845.144	29.66
845.314	29.48
845.484	28.76
845.654	35.92
845.824	32.51
845.995	32.36
846.165	29.99
846.335	24.12
846.505	30.3
846.675	29.86
846.845	32.38
847.015	36.01
847.185	39.93
847.355	43.83
847.525	43.6
847.695	43.53
847.865	39.24
848.035	45.06
848.205	49.84
848.375	52.18
848.545	55.96
848.715	59.03
848.884	62.12
849.054	61.11
849.224	55.92
849.394	51.87
849.564	47.42
849.733	54.38
849.903	48.68
850.073	47.11
850.243	45.48
850.412	43.9
850.582	41.14
850.752	29.44
850.921	15.96
851.091	25.96
851.26	26.73
851.43	26.15
851.599	29.09
851.769	33.3
851.939	35.42
852.108	28.09
852.278	20.24
852.447	25.89
852.616	34.69
852.786	47.34
852.955	39.63
853.125	31.71
853.294	40.5
853.463	33.55
853.633	27.11
853.802	29.81
853.971	41.92
854.141	49.39
854.31	43.64
854.479	33.42
854.648	38.74
854.818	53.43
854.987	61.76
855.156	61.15
855.325	64.89
855.494	66.37
855.663	63.63
855.832	56.9
856.001	55.03
856.171	52.48
856.34	51.34
856.509	51.29
856.678	40.96
856.847	42.75
857.016	41.18
857.185	37.22
857.353	38.92
857.522	44.06
857.691	42.96
857.86	44.56
858.029	44.32
858.198	45.79
858.367	37.36
858.535	39.5
858.704	39.12
858.873	39.88
859.042	42.18
859.21	43.86
859.379	44
859.548	43.01
859.717	45.15
859.885	42.62
860.054	43.38
860.222	48.51
860.391	40.04
860.56	24.44
860.728	27.99
860.897	30.73
861.065	28.43
861.234	19.65
861.402	22.57
861.571	21.28
861.739	16.58
861.908	20.78
862.076	21.28
862.244	26.14
862.413	43.07
862.581	36.15
862.749	30.14
862.918	44.01
863.086	47.52
863.254	45.33
863.423	52.34
863.591	61.8
863.759	66.61
863.927	64.83
864.096	61.13
864.264	57.52
864.432	62.52
864.6	62.79
864.768	42.27
864.936	39.76
865.104	42.36
865.272	31.05
865.44	28.93
865.608	25.74
865.776	29.44
865.944	34.53
866.112	34.98
866.28	35.01
866.448	40.29
866.616	48.28
866.784	50.65
866.952	52.59
867.12	56.42
867.288	51.56
867.455	44.28
867.623	47.4
867.791	51.89
867.959	43.82
868.127	43.89
868.294	44.86
868.462	44.2
868.63	36.9
868.797	32.6
868.965	33.89
869.133	42.12
869.3	48.38
869.468	47.11
869.636	40.42
869.803	45.24
869.971	38.22
870.138	30.11
870.306	25.83
870.473	31.21
870.641	35.84
870.808	35.8
870.975	28.3
871.143	30.81
871.31	30.03
871.478	34.96
871.645	35.87
871.812	37.07
871.98	40.7
872.147	41.71
872.314	39.74
872.482	43.34
872.649	45.7
872.816	36.37
872.983	24.16
873.15	23.51
873.318	20.35
873.485	9.47
873.652	15.4
873.819	17.59
873.986	14.31
874.153	17.48
874.32	12.95
874.487	8.3
874.654	24.1
874.821	34.12
874.988	33.63
875.155	31.83
875.322	34.96
875.489	33.8
875.656	30.89
875.823	36.67
875.99	28.65
876.157	23.65
876.324	26.16
876.49	23.34
876.657	19.08
876.824	9.44
876.991	8.54
877.157	7.08
877.324	-5.68
877.491	-5.2
877.658	-12.13
877.824	8.3
877.991	15.59
878.157	16.23
878.324	15.49
878.491	9.11
878.657	21.28
878.824	26.75
878.99	37.69
879.157	48.19
879.323	48.34
879.49	50.39
879.656	48.09
879.823	47.72
879.989	49.33
880.156	59.36
880.322	67.12
880.488	64.69
880.655	62.5
880.821	53.69
880.987	53.45
881.154	56.49
881.32	58.33
881.486	53.24
881.652	53.02
881.819	51.18
881.985	48.84
882.151	47.78
882.317	48.83
882.483	48.04
882.649	52.26
882.816	49.84
882.982	49.49
883.148	46.75
883.314	47.61
883.48	48.11
883.646	49.88
883.812	47.94
883.978	47.31
884.144	46.39
884.31	46.95
884.476	45.54
884.642	45.73
884.807	44.01
884.973	43.34
885.139	42.19
885.305	41.33
885.471	39.52
885.637	39.76
885.802	40.54
885.968	40.94
886.134	40.36
886.3	40.31
886.465	40.19
886.631	41.42
886.797	39.55
886.962	40.22
887.128	40.29
887.293	37.19
887.459	36.16
887.625	34.01
887.79	33.52
887.956	27.91
888.121	23.44
888.287	22.19
888.452	21.02
888.618	28.96
888.783	25.37
