Data from 2937899_Reflection_2.txt Node
Date: Wed Jul 15 13:44:41 EDT 2015
User: robert
Spectrometer: USB4E03001
Autoset integration time: false
Trigger mode: 4
Integration Time (sec): 1.000000E-1
Scans to average: 10
Electric dark correction enabled: true
Nonlinearity correction enabled: false
Boxcar width: 5
Stray light correction enabled: false
XAxis mode: Wavelengths
Stop averaging: false
Number of Pixels in Spectrum: 3648
>>>>>Begin Spectral Data<<<<<
177.566	38.81
177.785	9.13
178.005	115.03
178.225	115.32
178.445	116.48
178.665	-344.68
178.885	-25.11
179.105	50.96
179.324	-4.07
179.544	3.43
179.764	5.76
179.984	45.2
180.204	61.98
180.423	168.96
180.643	84.03
180.863	29.71
181.083	176.71
181.302	114.65
181.522	146.78
181.742	87.84
181.961	44.56
182.181	-522.97
182.401	-95.08
182.621	-1295.95
182.84	516.11
183.06	-1236.52
183.279	359.16
183.499	136.8
183.719	110.32
183.938	-841.8
184.158	30.33
184.377	-14.32
184.597	320.03
184.816	160.96
185.036	77.32
185.256	98.75
185.475	142.45
185.695	87.39
185.914	70.55
186.134	71.54
186.353	23.94
186.572	-116.86
186.792	-291.98
187.011	-186.4
187.231	-120.28
187.45	49.93
187.67	136.71
187.889	205.87
188.108	14468.75
188.328	273.56
188.547	253.34
188.766	295.93
188.986	330.29
189.205	341.17
189.424	330.42
189.644	542.11
189.863	694.07
190.082	2402.49
190.302	2697.66
190.521	324.99
190.74	602.17
190.959	1099.31
191.178	398.95
191.398	488.95
191.617	780.32
191.836	-611.89
192.055	-282.39
192.274	-131.85
192.494	-190.34
192.713	-121.86
192.932	-56.24
193.151	-53.64
193.37	-64.14
193.589	-31
193.808	-75.59
194.027	-101.63
194.246	-64.1
194.465	-225.6
194.685	-398.93
194.904	2662.83
195.123	640
195.342	328.38
195.561	593.51
195.78	450.53
195.999	260.57
196.218	158.58
196.436	194.06
196.655	366.69
196.874	602.4
197.093	285.77
197.312	4021.71
197.531	202.08
197.75	222.73
197.969	252.18
198.188	389.05
198.407	159.61
198.625	570.18
198.844	190.29
199.063	74.42
199.282	31
199.501	92.36
199.719	3147.92
199.938	580.03
200.157	5818.92
200.376	35711.11
200.594	1045.43
200.813	-222.46
201.032	-94.04
201.251	811.86
201.469	-147.26
201.688	-100.39
201.907	-95.45
202.125	-58.26
202.344	-14.55
202.563	-32.11
202.781	-42.39
203	-20.72
203.218	-27.71
203.437	-76.4
203.656	-70.26
203.874	-68.76
204.093	-252.48
204.311	-112.93
204.53	226.59
204.748	91.21
204.967	100.51
205.185	-646.21
205.404	476.44
205.622	37.06
205.841	102.65
206.059	-50.14
206.278	-156.18
206.496	-204.22
206.715	3602.63
206.933	-916.49
207.151	-436.69
207.37	-564.09
207.588	1391.7
207.806	6719.05
208.025	-1651.51
208.243	963.8
208.461	687.93
208.68	577.97
208.898	-248.61
209.116	614.77
209.335	859.23
209.553	152.22
209.771	68.35
209.989	44.48
210.208	-171.4
210.426	479.7
210.644	1846.07
210.862	473.02
211.081	263.58
211.299	209.13
211.517	-402.61
211.735	-32.85
211.953	-320.06
212.171	-374.51
212.39	-141125
212.608	257.26
212.826	-533.82
213.044	-227.81
213.262	-212.83
213.48	-945.37
213.698	-204.71
213.916	-139.27
214.134	-182.81
214.352	-101.4
214.57	-66.1
214.788	-16.19
215.006	5.61
215.224	26.59
215.442	4.55
215.66	23
215.878	56.5
216.096	26.32
216.314	117.15
216.532	105.7
216.75	121.89
216.968	40.25
217.185	-0.19
217.403	19.78
217.621	43.92
217.839	76.01
218.057	57.23
218.275	7.73
218.492	23.08
218.71	11.99
218.928	-101.79
219.146	-617.45
219.363	-327.48
219.581	-795.34
219.799	92622.22
220.017	1911.89
220.234	-2061.86
220.452	-929.3
220.67	-350.33
220.887	-200.22
221.105	-90.46
221.323	-277.67
221.54	-240.04
221.758	-133.08
221.976	-75.41
222.193	-146.43
222.411	-32.57
222.629	-23.74
222.846	33.84
223.064	20.99
223.281	7.59
223.499	-0.84
223.716	8.06
223.934	16.97
224.151	31.1
224.369	19.52
224.586	13.57
224.804	7.27
225.021	6.86
225.239	-14.7
225.456	-21.94
225.674	-46.28
225.891	-42.44
226.108	-59.89
226.326	-25.38
226.543	-20.43
226.76	-25.31
226.978	-6.62
227.195	-11.23
227.413	-18.04
227.63	-17.69
227.847	-15.88
228.064	-11.7
228.282	-14.52
228.499	-7.65
228.716	-7.89
228.934	-5.04
229.151	-0.88
229.368	0.49
229.585	1.51
229.802	5.35
230.02	8.19
230.237	11.78
230.454	17.05
230.671	17.03
230.888	19.35
231.105	17.86
231.323	14.61
231.54	12.72
231.757	8.71
231.974	11.3
232.191	8.75
232.408	6.88
232.625	5.14
232.842	4.06
233.059	0.08
233.276	-14.14
233.493	-10.1
233.71	-3.06
233.927	-2.65
234.144	-1.69
234.361	-1.53
234.578	-9.46
234.795	-5.62
235.012	-4.61
235.229	-8.14
235.446	1.98
235.663	7.84
235.879	6.05
236.096	0.78
236.313	-1.55
236.53	2.42
236.747	5.04
236.964	17.12
237.181	14.75
237.397	10.77
237.614	9.12
237.831	3.32
238.048	0.89
238.264	-1.27
238.481	5.64
238.698	3.06
238.915	-2.05
239.131	-1.46
239.348	-10
239.565	-7.87
239.781	-8.43
239.998	-0.84
240.215	-0.66
240.431	4.36
240.648	8.87
240.865	8.77
241.081	11.29
241.298	12.29
241.514	11.86
241.731	14.31
241.947	12.93
242.164	14.34
242.38	14.83
242.597	17.43
242.814	16.46
243.03	14.82
243.246	12.68
243.463	11.76
243.679	11.57
243.896	9.84
244.112	7.82
244.329	6.77
244.545	6.79
244.762	1.63
244.978	-0.81
245.194	-1.05
245.411	1.62
245.627	2.34
245.843	2.46
246.06	2.71
246.276	4.75
246.492	4.95
246.709	6.85
246.925	6.47
247.141	8.34
247.357	8.48
247.574	8.59
247.79	8.91
248.006	10.24
248.222	11.42
248.439	11.7
248.655	12.15
248.871	13.15
249.087	12.38
249.303	11.32
249.519	9.47
249.736	8.77
249.952	8.39
250.168	6.25
250.384	5.59
250.6	4.14
250.816	3.45
251.032	1.18
251.248	1.25
251.464	2.96
251.68	6.5
251.896	8.37
252.112	9.39
252.328	10.78
252.544	12.32
252.76	10.08
252.976	9.07
253.192	7.84
253.408	8.39
253.624	8.92
253.84	8.6
254.056	6.9
254.272	5.98
254.487	5.66
254.703	3.98
254.919	1.28
255.135	5.88
255.351	6.69
255.567	8.53
255.782	6.35
255.998	2.51
256.214	-0.08
256.43	0.02
256.646	1.8
256.861	1.38
257.077	0.75
257.293	3.73
257.508	-0.62
257.724	-1.21
257.94	1.71
258.155	3.41
258.371	6.52
258.587	8.05
258.802	7.87
259.018	8.13
259.234	7.67
259.449	9.23
259.665	8.68
259.88	10.4
260.096	11.81
260.312	11.05
260.527	11.18
260.743	10.68
260.958	10.1
261.174	10.87
261.389	11.34
261.605	11.89
261.82	11.37
262.036	11.53
262.251	9.62
262.466	9.41
262.682	10.06
262.897	11.48
263.113	9.64
263.328	9.44
263.543	8.22
263.759	4.34
263.974	2.9
264.189	0.59
264.405	1.34
264.62	2.09
264.835	2.12
265.051	0.57
265.266	-0.26
265.481	0.69
265.696	2.95
265.912	3.75
266.127	5.03
266.342	7.2
266.557	7.76
266.773	6.74
266.988	7.93
267.203	7
267.418	10.04
267.633	8.53
267.848	9.29
268.064	8.6
268.279	8.24
268.494	9.6
268.709	8.59
268.924	9.9
269.139	10.89
269.354	9.37
269.569	8.51
269.784	6.02
269.999	5.67
270.214	5.79
270.429	5.25
270.644	5.38
270.859	5.16
271.074	6.31
271.289	4.49
271.504	3.78
271.719	4.5
271.934	5.09
272.149	5.96
272.363	6.53
272.578	5.51
272.793	6.76
273.008	5.7
273.223	5.77
273.438	5.27
273.653	4.76
273.867	3.72
274.082	3.17
274.297	2.47
274.512	1.02
274.726	1.48
274.941	3.53
275.156	3.26
275.371	3.47
275.585	4.48
275.8	3.4
276.015	4.83
276.229	5.92
276.444	5.89
276.659	6.78
276.873	8.01
277.088	6.18
277.302	5.35
277.517	6.04
277.732	6.81
277.946	4.85
278.161	4.07
278.375	3.36
278.59	2.36
278.804	0.99
279.019	0.4
279.233	-1.74
279.448	0.13
279.662	0.37
279.877	-2.06
280.091	-0.69
280.306	0.73
280.52	1.99
280.735	2.61
280.949	2.75
281.163	3.7
281.378	5.24
281.592	7.28
281.806	7.37
282.021	6.69
282.235	7.73
282.449	7.44
282.664	8.06
282.878	9.05
283.092	9.92
283.307	10.59
283.521	11.7
283.735	10.72
283.949	11.4
284.164	12.6
284.378	12.68
284.592	12.22
284.806	11.83
285.02	10.73
285.234	10.19
285.449	9.42
285.663	10.44
285.877	10.21
286.091	9.63
286.305	8.61
286.519	7.98
286.733	9.13
286.947	9.39
287.161	7.92
287.375	7.93
287.589	8.94
287.803	9.46
288.017	7.38
288.231	6.43
288.445	6.77
288.659	6.12
288.873	5.91
289.087	4.21
289.301	3.19
289.515	4.57
289.729	3.99
289.943	0.86
290.157	0.56
290.371	1.95
290.584	2.21
290.798	1.09
291.012	1.83
291.226	0.41
291.44	-0.35
291.654	0.13
291.867	-0.28
292.081	-0.35
292.295	0.78
292.509	2.05
292.722	1.95
292.936	3.79
293.15	4.93
293.364	5.03
293.577	6.45
293.791	8.95
294.005	9.1
294.218	11.11
294.432	12.24
294.645	11.91
294.859	10.35
295.073	10.45
295.286	9.66
295.5	10.31
295.713	10.98
295.927	11.81
296.14	10.66
296.354	10.79
296.568	10.04
296.781	9.89
296.994	11.56
297.208	11.81
297.421	12.03
297.635	10.6
297.848	10.22
298.062	9.57
298.275	7.36
298.489	6.85
298.702	6.53
298.915	5.57
299.129	4.56
299.342	3.91
299.555	2.96
299.769	1.44
299.982	1.84
300.195	2.94
300.409	2.92
300.622	4.08
300.835	5.29
301.048	5.57
301.262	5.89
301.475	6.11
301.688	5.49
301.901	5.89
302.115	6.24
302.328	6.65
302.541	4.64
302.754	5.36
302.967	6.75
303.18	5.67
303.393	7.77
303.607	7.61
303.82	8.37
304.033	9.04
304.246	9.13
304.459	10.77
304.672	11.99
304.885	12.84
305.098	12.9
305.311	12.73
305.524	13.32
305.737	10.94
305.95	12.41
306.163	12.01
306.376	10.1
306.589	10.8
306.802	9.12
307.015	9.06
307.228	9.33
307.44	8.94
307.653	8.83
307.866	8.38
308.079	9.03
308.292	6.96
308.505	7.77
308.718	9.39
308.93	7.57
309.143	7.54
309.356	6.51
309.569	5.82
309.781	4.59
309.994	3.91
310.207	3.78
310.42	3.56
310.632	4.85
310.845	4.72
311.058	4.13
311.27	6.44
311.483	7.66
311.696	7.69
311.908	8.17
312.121	8.51
312.333	9.6
312.546	10.48
312.759	9.98
312.971	10.7
313.184	9.5
313.396	8.23
313.609	5.82
313.821	5.3
314.034	5.45
314.246	4.92
314.459	4.03
314.671	2.29
314.884	1.14
315.096	0.99
315.309	-0.74
315.521	-0.54
315.733	1.11
315.946	2.8
316.158	3.28
316.371	3.26
316.583	3.37
316.795	3.91
317.008	3.9
317.22	5.76
317.432	5.83
317.644	6.29
317.857	6.61
318.069	6.47
318.281	5.52
318.494	5.36
318.706	4.69
318.918	6.31
319.13	6.76
319.342	7.75
319.555	7.36
319.767	9.37
319.979	7.1
320.191	9.09
320.403	10.03
320.615	10.93
320.827	11.2
321.039	11.4
321.252	9.98
321.464	10.09
321.676	11.42
321.888	10.32
322.1	11.12
322.312	14.25
322.524	13.77
322.736	11.21
322.948	11
323.16	10.1
323.372	11.33
323.584	11.33
323.796	10.51
324.007	9.45
324.219	10.63
324.431	9.49
324.643	8.35
324.855	6.64
325.067	7.71
325.279	8.69
325.491	7.68
325.702	6.93
325.914	6.54
326.126	7.26
326.338	6.37
326.55	6.41
326.761	6.1
326.973	5.9
327.185	5.26
327.396	5.83
327.608	3.08
327.82	3.64
328.032	3.9
328.243	6.12
328.455	5.5
328.666	6.73
328.878	5.22
329.09	5.23
329.301	6.05
329.513	7.36
329.725	8.03
329.936	10.19
330.148	10.02
330.359	10.65
330.571	8.83
330.782	9.16
330.994	10.11
331.205	10.62
331.417	11.92
331.628	12.59
331.84	12.42
332.051	11.54
332.262	10.36
332.474	10.19
332.685	9.32
332.897	10.95
333.108	10.59
333.319	8.93
333.531	9.48
333.742	7.82
333.953	7.06
334.165	7.95
334.376	6.73
334.587	8.36
334.799	8.76
335.01	9.7
335.221	8.02
335.432	7.97
335.644	8.75
335.855	7.09
336.066	7.04
336.277	7.11
336.488	6.34
336.7	7.88
336.911	6.78
337.122	6.01
337.333	4.24
337.544	3.63
337.755	4.68
337.966	4.69
338.177	4.75
338.388	3.88
338.599	4.89
338.811	4.65
339.022	3.54
339.233	2.72
339.444	4.03
339.655	4.84
339.866	5.31
340.076	4.95
340.287	3.92
340.498	5.47
340.709	6.82
340.92	5.36
341.131	5.16
341.342	6.32
341.553	6.35
341.764	6.42
341.975	7.08
342.185	7.6
342.396	7.6
342.607	8.43
342.818	7.3
343.029	7.08
343.239	7.52
343.45	7.88
343.661	7.44
343.872	8.33
344.082	7.76
344.293	7.05
344.504	9
344.714	9.43
344.925	9.57
345.136	9.72
345.346	9.91
345.557	10.23
345.768	10.22
345.978	9.63
346.189	9.27
346.399	9.8
346.61	10.8
346.821	8.41
347.031	6.76
347.242	6.59
347.452	6.17
347.663	5.49
347.873	4.75
348.084	4.76
348.294	4.81
348.504	5.49
348.715	5.24
348.925	4.33
349.136	4.9
349.346	6.67
349.557	6.21
349.767	7
349.977	6.52
350.188	7.76
350.398	9.34
350.608	8.53
350.819	7.44
351.029	6.95
351.239	7.61
351.449	7.82
351.66	6.74
351.87	6.63
352.08	5.72
352.29	8.62
352.501	8.55
352.711	6.55
352.921	8.59
353.131	8.19
353.341	8.56
353.552	7.77
353.762	7.05
353.972	7.63
354.182	7.16
354.392	7.87
354.602	6.7
354.812	6.25
355.022	7.14
355.232	5.77
355.442	7.82
355.652	7.54
355.862	7.16
356.072	7.72
356.282	7.84
356.492	7.56
356.702	8.24
356.912	8.25
357.122	7.85
357.332	7.66
357.542	8.07
357.752	6.87
357.962	6.93
358.171	6.93
358.381	6.51
358.591	6.09
358.801	6.57
359.011	5.66
359.221	4.81
359.43	4.82
359.64	4.61
359.85	3.68
360.06	3.04
360.269	3.69
360.479	3.98
360.689	4.71
360.899	4.58
361.108	4.44
361.318	4.79
361.528	5.5
361.737	5.76
361.947	5.78
362.156	6.68
362.366	7.59
362.576	6.84
362.785	6.88
362.995	6.7
363.204	7.84
363.414	8.31
363.623	9.17
363.833	8.84
364.042	8.93
364.252	9.12
364.461	8.59
364.671	8.31
364.88	8.88
365.09	8.89
365.299	8.53
365.509	8.17
365.718	7.36
365.927	6.92
366.137	6.9
366.346	7.22
366.555	6.53
366.765	6.94
366.974	7.36
367.183	7.32
367.393	7.07
367.602	6.74
367.811	6.6
368.021	6.95
368.23	5.58
368.439	5.13
368.648	4.97
368.857	5.44
369.067	6.09
369.276	5.97
369.485	5.99
369.694	6.39
369.903	7.02
370.112	5.9
370.321	5.93
370.531	7.18
370.74	7.63
370.949	8.08
371.158	7.64
371.367	7.36
371.576	7.16
371.785	6.49
371.994	7.18
372.203	7.64
372.412	8.33
372.621	8.77
372.83	8.36
373.039	8.75
373.248	8.03
373.457	8.99
373.666	8.37
373.874	8.91
374.083	9.5
374.292	8.12
374.501	8.23
374.71	7.58
374.919	7.12
375.128	7.26
375.336	6.98
375.545	6.59
375.754	6.36
375.963	6.34
376.171	5.99
376.38	6.17
376.589	6.38
376.798	5.87
377.006	6.68
377.215	6.64
377.424	6.53
377.632	6.27
377.841	6.5
378.05	5.4
378.258	5.4
378.467	5.1
378.675	4.88
378.884	5.11
379.093	5.06
379.301	4.53
379.51	4.77
379.718	4.47
379.927	4.73
380.135	4.09
380.344	4.85
380.552	4.51
380.761	4.55
380.969	4.36
381.177	4.8
381.386	4.26
381.594	4.28
381.803	4.16
382.011	4.7
382.219	4.99
382.428	5.45
382.636	5.22
382.845	5.56
383.053	5.39
383.261	5.55
383.469	5.02
383.678	5.52
383.886	5.24
384.094	5.07
384.302	4.54
384.511	3.46
384.719	3.24
384.927	3.14
385.135	3.12
385.343	3.28
385.552	2.94
385.76	2.94
385.968	2.87
386.176	3.04
386.384	3.09
386.592	2.95
386.8	3.74
387.008	3.49
387.216	4.03
387.424	4.27
387.633	4.12
387.841	4.2
388.049	4.41
388.257	3.77
388.465	3.53
388.672	3.9
388.88	4.18
389.088	3.79
389.296	3.92
389.504	3.52
389.712	3.22
389.92	3.19
390.128	3.2
390.336	2.81
390.544	3.28
390.751	3.24
390.959	3.18
391.167	3.23
391.375	3.55
391.583	3.88
391.79	3.92
391.998	3.91
392.206	3.71
392.414	3.47
392.621	3.62
392.829	3.69
393.037	3.25
393.244	3.02
393.452	2.97
393.66	2.84
393.867	2.39
394.075	2.46
394.283	2.47
394.49	2.77
394.698	3.09
394.905	3
395.113	2.69
395.32	3.26
395.528	3.31
395.735	3.39
395.943	3.19
396.15	3.28
396.358	3
396.565	2.92
396.773	2.7
396.98	2.7
397.188	2.96
397.395	3.56
397.602	3.55
397.81	3.55
398.017	3.4
398.225	3.72
398.432	3.89
398.639	4.17
398.847	4.53
399.054	4.51
399.261	4.56
399.468	4.1
399.676	3.41
399.883	3.2
400.09	3.32
400.297	3.14
400.505	3.32
400.712	3.1
400.919	2.97
401.126	2.57
401.333	2.82
401.54	3.09
401.748	3.29
401.955	3.6
402.162	3.66
402.369	3.31
402.576	3.62
402.783	2.76
402.99	2.75
403.197	2.57
403.404	2.66
403.611	2.52
403.818	1.93
404.025	1.9
404.232	1.82
404.439	1.96
404.646	2.06
404.853	1.98
405.06	2.13
405.267	2.39
405.474	2.77
405.681	2.86
405.887	3.04
406.094	3.45
406.301	3.51
406.508	3.9
406.715	3.69
406.922	3.65
407.128	3.65
407.335	3.58
407.542	3.59
407.749	3.38
407.955	3.17
408.162	3.17
408.369	2.81
408.575	2.68
408.782	2.17
408.989	2.12
409.195	2.06
409.402	1.93
409.609	2.08
409.815	2.03
410.022	2.08
410.228	2.24
410.435	2.02
410.642	2.32
410.848	2.46
411.055	2.79
411.261	2.89
411.468	2.84
411.674	2.72
411.881	2.58
412.087	2.65
412.294	2.65
412.5	2.42
412.706	2.66
412.913	2.59
413.119	2.67
413.326	2.05
413.532	2.13
413.738	2.2
413.945	2.57
414.151	2.67
414.357	2.37
414.564	2.52
414.77	2.54
414.976	2.27
415.182	2.31
415.389	2.51
415.595	2.43
415.801	2.24
416.007	2.07
416.214	1.66
416.42	1.69
416.626	1.92
416.832	1.81
417.038	1.86
417.244	2.03
417.45	1.91
417.657	1.75
417.863	1.91
418.069	2.25
418.275	2.36
418.481	2.2
418.687	2.23
418.893	2.17
419.099	2.06
419.305	2.22
419.511	2.06
419.717	1.99
419.923	2.01
420.129	2.18
420.335	1.92
420.541	1.86
420.746	2.03
420.952	2.1
421.158	2.05
421.364	2.09
421.57	1.92
421.776	1.96
421.982	2.05
422.187	2.12
422.393	2.13
422.599	2.24
422.805	2.4
423.01	2.48
423.216	2.57
423.422	2.65
423.628	2.85
423.833	2.97
424.039	2.98
424.245	2.9
424.45	2.71
424.656	2.72
424.862	2.72
425.067	2.66
425.273	2.67
425.478	2.54
425.684	2.56
425.889	2.34
426.095	2.24
426.301	2.16
426.506	2.12
426.712	2.11
426.917	1.94
427.123	1.93
427.328	1.8
427.533	1.81
427.739	1.86
427.944	1.73
428.15	1.72
428.355	1.73
428.561	1.64
428.766	1.8
428.971	1.78
429.177	2.13
429.382	2.08
429.587	2.3
429.793	2.08
429.998	2.03
430.203	1.88
430.408	1.69
430.614	1.58
430.819	1.74
431.024	1.69
431.229	1.94
431.434	1.68
431.64	1.77
431.845	1.68
432.05	1.82
432.255	1.89
432.46	2.02
432.665	2.15
432.87	2.29
433.076	2.27
433.281	2.26
433.486	2.18
433.691	2.23
433.896	2.21
434.101	2.3
434.306	2.33
434.511	2.21
434.716	2.28
434.921	2.35
435.126	2.39
435.331	2.54
435.535	2.52
435.74	2.4
435.945	2.42
436.15	2.39
436.355	2.29
436.56	2.15
436.765	2.14
436.97	2.14
437.174	1.91
437.379	1.75
437.584	1.7
437.789	1.85
437.993	1.89
438.198	1.81
438.403	1.97
438.608	1.9
438.812	1.92
439.017	2
439.222	2.04
439.426	2.16
439.631	2.27
439.836	2.28
440.04	2.21
440.245	2.21
440.45	2.24
440.654	2.23
440.859	2.37
441.063	2.23
441.268	2.23
441.472	2.13
441.677	2.17
441.881	2.12
442.086	2.16
442.29	2.12
442.495	2.25
442.699	2.23
442.904	2.08
443.108	1.96
443.312	2.21
443.517	2.12
443.721	2.22
443.925	2.03
444.13	2.09
444.334	1.95
444.538	1.99
444.743	1.97
444.947	1.91
445.151	1.9
445.356	1.91
445.56	1.93
445.764	1.92
445.968	1.82
446.173	1.9
446.377	1.95
446.581	1.96
446.785	1.85
446.989	1.86
447.193	2
447.398	2.04
447.602	2.05
447.806	2.07
448.01	2.21
448.214	2.25
448.418	2.31
448.622	2.15
448.826	2.24
449.03	2.33
449.234	2.16
449.438	2.17
449.642	2.1
449.846	1.95
450.05	1.74
450.254	1.73
450.458	1.74
450.662	1.82
450.866	1.98
451.069	1.77
451.273	1.76
451.477	1.75
451.681	1.69
451.885	1.68
452.089	1.84
452.292	1.96
452.496	1.77
452.7	1.76
452.904	1.79
453.107	1.55
453.311	1.56
453.515	1.61
453.719	1.74
453.922	1.63
454.126	1.47
454.33	1.2
454.533	1.29
454.737	1.34
454.94	1.2
455.144	1.13
455.348	1.24
455.551	1.33
455.755	1.19
455.958	1.16
456.162	1.18
456.365	1.51
456.569	1.75
456.772	1.75
456.976	1.88
457.179	2
457.383	1.96
457.586	1.98
457.79	2.06
457.993	2.08
458.196	2.18
458.4	2.16
458.603	1.98
458.807	2
459.01	2.03
459.213	1.94
459.417	2.05
459.62	2.09
459.823	2.07
460.026	1.96
460.23	2.03
460.433	1.92
460.636	1.98
460.839	2.14
461.042	2.21
461.246	2.13
461.449	2.11
461.652	2
461.855	2.05
462.058	1.98
462.261	1.99
462.464	1.83
462.668	2.07
462.871	1.96
463.074	1.93
463.277	1.78
463.48	1.8
463.683	1.91
463.886	1.87
464.089	1.55
464.292	1.71
464.495	1.85
464.698	1.89
464.901	1.69
465.104	1.81
465.306	1.63
465.509	1.62
465.712	1.6
465.915	1.62
466.118	1.65
466.321	1.69
466.524	1.76
466.726	1.64
466.929	1.92
467.132	1.86
467.335	1.63
467.538	1.76
467.74	1.57
467.943	1.59
468.146	1.48
468.348	1.44
468.551	1.7
468.754	1.62
468.956	1.72
469.159	1.55
469.362	1.6
469.564	1.75
469.767	1.7
469.969	1.84
470.172	1.91
470.375	2.08
470.577	2.25
470.78	2.11
470.982	2.04
471.185	2.04
471.387	1.9
471.59	1.95
471.792	2.14
471.995	2.26
472.197	2.31
472.399	2.21
472.602	2.22
472.804	2.08
473.007	2.14
473.209	2.19
473.411	2.12
473.614	2.18
473.816	2.02
474.018	2.07
474.22	1.95
474.423	1.93
474.625	1.93
474.827	1.73
475.03	1.79
475.232	1.82
475.434	1.83
475.636	1.7
475.838	1.74
476.04	1.95
476.243	1.58
476.445	1.42
476.647	1.56
476.849	1.62
477.051	1.75
477.253	1.77
477.455	1.71
477.657	1.8
477.859	2
478.061	1.96
478.263	1.92
478.465	2.2
478.667	2.27
478.869	2.16
479.071	2.15
479.273	1.97
479.475	1.86
479.677	1.76
479.879	1.8
480.081	1.76
480.283	1.75
480.485	1.79
480.686	1.53
480.888	1.61
481.09	1.54
481.292	1.57
481.494	1.63
481.695	1.72
481.897	1.68
482.099	1.62
482.301	1.63
482.502	1.64
482.704	1.59
482.906	1.74
483.107	1.72
483.309	1.82
483.511	1.84
483.712	1.86
483.914	1.83
484.115	1.89
484.317	1.91
484.519	1.88
484.72	1.87
484.922	1.89
485.123	1.85
485.325	1.83
485.526	1.79
485.728	1.79
485.929	1.8
486.131	1.83
486.332	1.84
486.534	1.77
486.735	1.83
486.936	1.97
487.138	1.94
487.339	1.96
487.541	2.01
487.742	2.04
487.943	2
488.144	1.96
488.346	1.94
488.547	1.94
488.748	1.97
488.95	1.94
489.151	1.85
489.352	1.84
489.553	1.83
489.755	1.82
489.956	1.77
490.157	1.75
490.358	1.75
490.559	1.78
490.76	1.78
490.961	1.81
491.163	1.73
491.364	1.82
491.565	1.83
491.766	1.82
491.967	1.85
492.168	1.87
492.369	1.88
492.57	1.93
492.771	1.93
492.972	1.87
493.173	1.83
493.374	1.87
493.575	1.76
493.776	1.89
493.976	1.89
494.177	1.93
494.378	1.98
494.579	1.95
494.78	1.94
494.981	1.94
495.182	1.96
495.382	2.03
495.583	2.05
495.784	1.98
495.985	1.69
496.185	1.74
496.386	1.63
496.587	1.59
496.788	1.73
496.988	1.65
497.189	1.72
497.39	1.62
497.59	1.64
497.791	1.65
497.992	1.73
498.192	1.92
498.393	1.89
498.593	1.86
498.794	1.85
498.994	1.77
499.195	1.89
499.395	1.85
499.596	2
499.796	2.02
499.997	2.04
500.197	2.12
500.398	2.02
500.598	2
500.799	2.01
500.999	2.13
501.199	2.1
501.4	2.04
501.6	2.18
501.801	2.12
502.001	2.17
502.201	2.08
502.402	1.92
502.602	1.85
502.802	1.76
503.002	1.68
503.203	1.5
503.403	1.56
503.603	1.63
503.803	1.64
504.003	1.65
504.204	1.58
504.404	1.52
504.604	1.52
504.804	1.57
505.004	1.88
505.204	1.95
505.404	2.06
505.604	1.93
505.804	1.81
506.005	1.64
506.205	1.8
506.405	1.81
506.605	2.05
506.805	2.18
507.005	2.27
507.204	2.11
507.404	2.34
507.604	2.23
507.804	2.37
508.004	2.33
508.204	2.38
508.404	2.29
508.604	2.28
508.804	2.21
509.003	2.11
509.203	2.04
509.403	2.04
509.603	1.9
509.803	1.92
510.002	1.79
510.202	1.82
510.402	1.72
510.602	1.85
510.801	1.93
511.001	1.88
511.201	1.81
511.4	1.67
511.6	1.64
511.8	1.69
511.999	1.69
512.199	1.85
512.398	1.85
512.598	1.83
512.797	1.68
512.997	1.65
513.197	1.76
513.396	1.79
513.596	1.9
513.795	1.9
513.994	1.84
514.194	1.93
514.393	1.84
514.593	1.97
514.792	2.14
514.992	2.21
515.191	2.09
515.39	2.1
515.59	2.23
515.789	2.43
515.988	2.41
516.188	2.4
516.387	2.3
516.586	2.35
516.786	2.18
516.985	2.11
517.184	2.12
517.383	2.17
517.582	2.02
517.782	2.06
517.981	2
518.18	2.05
518.379	1.98
518.578	2.06
518.777	2.06
518.976	2.17
519.176	2.12
519.375	2.13
519.574	2.16
519.773	2.27
519.972	2.18
520.171	2.12
520.37	2.09
520.569	2.21
520.768	2.11
520.967	2.22
521.166	2.21
521.365	2.24
521.564	2.1
521.762	2.26
521.961	2.26
522.16	2.37
522.359	2.37
522.558	2.42
522.757	2.32
522.956	2.37
523.154	2.29
523.353	2.25
523.552	2.2
523.751	2.28
523.949	2.19
524.148	2.23
524.347	2.18
524.546	2.24
524.744	2.31
524.943	2.43
525.142	2.43
525.34	2.43
525.539	2.45
525.737	2.53
525.936	2.54
526.135	2.43
526.333	2.39
526.532	2.39
526.73	2.37
526.929	2.29
527.127	2.19
527.326	2.24
527.524	2.21
527.723	2.25
527.921	2.26
528.12	2.21
528.318	2.26
528.516	2.34
528.715	2.32
528.913	2.35
529.112	2.32
529.31	2.34
529.508	2.33
529.707	2.36
529.905	2.32
530.103	2.31
530.301	2.37
530.5	2.45
530.698	2.39
530.896	2.41
531.094	2.41
531.293	2.47
531.491	2.59
531.689	2.71
531.887	2.64
532.085	2.69
532.283	2.78
532.481	2.87
532.68	2.87
532.878	2.93
533.076	3
533.274	2.96
533.472	2.99
533.67	2.91
533.868	2.78
534.066	2.86
534.264	2.83
534.462	2.76
534.66	2.66
534.858	2.61
535.056	2.58
535.253	2.62
535.451	2.63
535.649	2.65
535.847	2.62
536.045	2.68
536.243	2.56
536.441	2.71
536.638	2.78
536.836	2.76
537.034	2.83
537.232	2.83
537.43	2.71
537.627	2.85
537.825	2.84
538.023	2.91
538.22	2.9
538.418	3.06
538.616	3.11
538.813	3.19
539.011	3.27
539.209	3.12
539.406	3.11
539.604	3.3
539.801	3.25
539.999	3.26
540.196	3.36
540.394	3.25
540.591	3.23
540.789	3.21
540.986	3.08
541.184	3.11
541.381	3.15
541.579	3.17
541.776	3.2
541.974	3.18
542.171	3.15
542.368	3.09
542.566	3.2
542.763	3.21
542.96	3.22
543.158	3.21
543.355	3.27
543.552	3.3
543.75	3.27
543.947	3.18
544.144	3.31
544.341	3.35
544.539	3.4
544.736	3.37
544.933	3.39
545.13	3.36
545.327	3.49
545.524	3.5
545.722	3.61
545.919	3.71
546.116	3.63
546.313	3.64
546.51	3.69
546.707	3.74
546.904	3.88
547.101	3.96
547.298	3.95
547.495	3.99
547.692	4.09
547.889	3.94
548.086	3.91
548.283	3.97
548.48	3.92
548.677	3.94
548.874	3.98
549.07	3.79
549.267	3.78
549.464	3.93
549.661	4
549.858	3.95
550.055	4.16
550.251	4.26
550.448	4.3
550.645	4.34
550.842	4.18
551.038	4.39
551.235	4.65
551.432	4.78
551.628	4.65
551.825	4.54
552.022	4.55
552.218	4.62
552.415	4.48
552.612	4.58
552.808	4.6
553.005	4.7
553.201	4.5
553.398	4.52
553.594	4.29
553.791	4.3
553.987	4.34
554.184	4.24
554.38	4.15
554.577	4.29
554.773	4.28
554.97	4.21
555.166	4.21
555.362	4.31
555.559	4.17
555.755	4.26
555.952	4.41
556.148	4.56
556.344	4.5
556.541	4.63
556.737	4.66
556.933	4.78
557.129	4.8
557.326	5.03
557.522	5.33
557.718	5.52
557.914	5.48
558.11	5.42
558.307	5.25
558.503	5.32
558.699	5.29
558.895	5.06
559.091	4.84
559.287	5.09
559.483	5.04
559.679	4.68
559.876	4.41
560.072	4.47
560.268	4.45
560.464	4.49
560.66	4.69
560.856	4.69
561.052	4.77
561.247	4.98
561.443	4.73
561.639	4.82
561.835	4.89
562.031	5.08
562.227	4.97
562.423	5.29
562.619	5.54
562.815	5.51
563.01	5.62
563.206	5.83
563.402	5.82
563.598	5.96
563.793	5.71
563.989	5.61
564.185	5.65
564.381	5.8
564.576	5.59
564.772	5.71
564.968	5.79
565.163	5.46
565.359	5.36
565.555	5.53
565.75	5.39
565.946	5.5
566.141	5.78
566.337	5.83
566.532	5.97
566.728	5.88
566.923	5.63
567.119	5.59
567.314	5.82
567.51	5.9
567.705	5.93
567.901	5.95
568.096	5.98
568.292	5.84
568.487	5.8
568.682	5.86
568.878	5.99
569.073	6.19
569.268	6.13
569.464	5.98
569.659	5.77
569.854	5.8
570.05	5.94
570.245	6.16
570.44	6.03
570.635	6.24
570.831	6.09
571.026	6.1
571.221	6
571.416	6.07
571.611	6.3
571.806	6.56
572.002	6.64
572.197	6.5
572.392	6.34
572.587	6.54
572.782	6.25
572.977	6.21
573.172	6.3
573.367	6.43
573.562	6.54
573.757	6.47
573.952	6.44
574.147	6.2
574.342	6.21
574.537	6.19
574.732	6.19
574.927	6.27
575.121	6.26
575.316	6.15
575.511	5.79
575.706	5.66
575.901	5.81
576.096	5.77
576.29	5.86
576.485	6.1
576.68	5.95
576.875	5.76
577.069	5.88
577.264	6.11
577.459	5.98
577.654	6.22
577.848	6.25
578.043	6.25
578.238	6.21
578.432	6.18
578.627	6.06
578.821	6.4
579.016	6.63
579.21	6.7
579.405	6.51
579.6	6.71
579.794	6.83
579.989	6.76
580.183	6.52
580.378	6.66
580.572	6.65
580.766	6.69
580.961	6.69
581.155	6.57
581.35	6.77
581.544	6.86
581.738	6.96
581.933	6.88
582.127	6.89
582.321	6.84
582.516	6.75
582.71	6.66
582.904	6.79
583.099	6.74
583.293	7.03
583.487	6.72
583.681	6.69
583.875	6.51
584.07	6.8
584.264	6.76
584.458	6.67
584.652	6.78
584.846	6.89
585.04	7.1
585.234	7.03
585.428	6.79
585.623	7.02
585.817	7.27
586.011	7.38
586.205	6.97
586.399	6.99
586.593	7.24
586.787	7.15
586.981	7.3
587.174	6.99
587.368	7.04
587.562	7.04
587.756	6.79
587.95	6.51
588.144	6.55
588.338	6.72
588.532	6.98
588.725	7.03
588.919	6.9
589.113	6.84
589.307	6.84
589.501	7.11
589.694	7.09
589.888	6.91
590.082	6.82
590.275	6.62
590.469	6.6
590.663	6.51
590.856	6.4
591.05	6.69
591.244	6.5
591.437	6.53
591.631	5.98
591.824	5.85
592.018	5.99
592.212	5.92
592.405	5.92
592.599	5.85
592.792	5.77
592.986	5.96
593.179	6
593.372	6.17
593.566	6.14
593.759	6.22
593.953	6.63
594.146	6.57
594.339	6.97
594.533	7.13
594.726	7.06
594.92	7.12
595.113	6.97
595.306	6.83
595.499	6.76
595.693	6.5
595.886	6.7
596.079	6.59
596.272	6.63
596.466	6.45
596.659	6.38
596.852	6.58
597.045	6.6
597.238	6.39
597.431	6.32
597.624	6.31
597.818	6.5
598.011	6.41
598.204	6.27
598.397	6.33
598.59	6.33
598.783	6.14
598.976	5.83
599.169	5.75
599.362	6.01
599.555	6.14
599.748	5.88
599.941	5.79
600.134	5.76
600.326	5.8
600.519	5.9
600.712	5.92
600.905	6.21
601.098	6.59
601.291	6.73
601.483	6.95
601.676	6.65
601.869	6.85
602.062	6.91
602.255	6.88
602.447	6.92
602.64	6.86
602.833	6.91
603.025	6.88
603.218	6.69
603.411	6.5
603.603	6.34
603.796	6.54
603.989	6.53
604.181	6.5
604.374	6.58
604.566	6.6
604.759	6.54
604.951	6.32
605.144	6.25
605.336	6.04
605.529	6.2
605.721	6.2
605.914	6.04
606.106	6.2
606.299	6.18
606.491	6.35
606.683	6.3
606.876	6.26
607.068	6.36
607.26	6.58
607.453	7
607.645	6.9
607.837	6.73
608.03	6.82
608.222	6.9
608.414	6.72
608.606	6.37
608.799	6.19
608.991	6.35
609.183	6.35
609.375	6.28
609.567	6.2
609.759	6.26
609.952	6.31
610.144	6.16
610.336	5.86
610.528	6.06
610.72	6.17
610.912	6.14
611.104	6.07
611.296	6.06
611.488	6.1
611.68	6.14
611.872	6.02
612.064	6.07
612.256	6.23
612.448	6.58
612.64	6.61
612.832	6.69
613.023	7.1
613.215	6.92
613.407	6.82
613.599	6.67
613.791	6.46
613.983	6.45
614.174	6.22
614.366	6.38
614.558	6.03
614.75	6.1
614.941	6.07
615.133	5.77
615.325	5.94
615.516	6.3
615.708	6.27
615.9	6.46
616.091	6.53
616.283	6.56
616.475	6.68
616.666	6.63
616.858	6.69
617.049	6.52
617.241	6.49
617.432	6.59
617.624	6.37
617.815	6.57
618.007	6.55
618.198	6.47
618.39	6.87
618.581	6.54
618.773	7.01
618.964	6.59
619.155	6.34
619.347	6.18
619.538	5.95
619.729	5.97
619.921	5.99
620.112	5.73
620.303	5.87
620.494	5.92
620.686	5.58
620.877	5.07
621.068	5.41
621.259	5.53
621.451	5.58
621.642	5.27
621.833	5.24
622.024	5.17
622.215	4.91
622.406	5.12
622.597	4.91
622.788	5.1
622.98	5.44
623.171	5.67
623.362	5.8
623.553	6.18
623.744	6.66
623.935	6.77
624.126	6.77
624.317	7.29
624.508	7.09
624.698	6.92
624.889	7.19
625.08	7.27
625.271	7.23
625.462	7.47
625.653	7.32
625.844	7.23
626.034	7.49
626.225	7.53
626.416	7.51
626.607	7.61
626.798	7.57
626.988	7.36
627.179	7.24
627.37	7.22
627.56	7.16
627.751	6.85
627.942	6.85
628.132	6.64
628.323	6.52
628.514	6.49
628.704	6.28
628.895	6.29
629.085	6.66
629.276	6.66
629.466	6.46
629.657	6.07
629.847	6.41
630.038	6.57
630.228	6.7
630.419	6.63
630.609	6.54
630.8	6.49
630.99	6.57
631.181	6.31
631.371	5.98
631.561	6.1
631.752	6.49
631.942	6.53
632.132	6.69
632.323	6.46
632.513	6.21
632.703	6.37
632.893	6.27
633.084	6.5
633.274	6.27
633.464	6.39
633.654	6.27
633.844	6.33
634.034	6.15
634.225	5.78
634.415	5.84
634.605	6.45
634.795	6.3
634.985	6.26
635.175	6.26
635.365	6.38
635.555	6.19
635.745	6.28
635.935	6.34
636.125	6.36
636.315	6.45
636.505	6.43
636.695	6.39
636.885	6.28
637.075	6.65
637.265	6.61
637.455	6.53
637.644	6.73
637.834	6.83
638.024	6.8
638.214	6.81
638.404	6.75
638.593	6.99
638.783	6.47
638.973	6.56
639.163	6.12
639.352	5.79
639.542	5.75
639.732	5.88
639.921	5.27
640.111	5.34
640.301	5.36
640.49	5.8
640.68	5.41
640.87	5.57
641.059	5.77
641.249	6.12
641.438	6.04
641.628	6.09
641.817	6.3
642.007	6.93
642.196	6.91
642.386	7.14
642.575	6.47
642.764	6.56
642.954	6.56
643.143	6.47
643.333	6.3
643.522	6.37
643.711	6.65
643.901	6.36
644.09	6.03
644.279	5.59
644.469	5.71
644.658	5.87
644.847	5.7
645.036	5.79
645.226	5.63
645.415	5.29
645.604	5.46
645.793	5.33
645.982	5.48
646.171	5.58
646.361	5.44
646.55	5.06
646.739	5.09
646.928	5.38
647.117	5.56
647.306	6.15
647.495	6.68
647.684	7
647.873	6.97
648.062	6.86
648.251	6.77
648.44	7.01
648.629	6.93
648.818	6.73
649.007	6.65
649.196	6.63
649.384	5.87
649.573	5.44
649.762	5.37
649.951	5.7
650.14	5.72
650.328	5.81
650.517	5.7
650.706	5.93
650.895	6.57
651.083	7.02
651.272	6.48
651.461	7.65
651.65	7.95
651.838	7.6
652.027	7.41
652.216	7.44
652.404	7.55
652.593	7.94
652.781	8.02
652.97	7.43
653.158	7.16
653.347	7.56
653.535	6.49
653.724	6.58
653.912	7.03
654.101	7.28
654.289	7.08
654.478	6.84
654.666	6.68
654.855	6.65
655.043	6.94
655.231	6.36
655.42	6.3
655.608	6.71
655.796	6.55
655.985	5.9
656.173	5.61
656.361	5.62
656.55	6.04
656.738	5.88
656.926	5.8
657.114	5.75
657.302	5.8
657.491	5.98
657.679	5.46
657.867	5.55
658.055	6.15
658.243	6.29
658.431	6.66
658.619	6.39
658.807	6.37
658.996	6
659.184	5.89
659.372	5.98
659.56	5.68
659.748	5.8
659.936	6.06
660.124	5.8
660.311	5.72
660.499	5.24
660.687	5.02
660.875	4.74
661.063	4.91
661.251	5.02
661.439	4.85
661.627	4.76
661.814	4.88
662.002	4.51
662.19	4.63
662.378	5.19
662.565	4.93
662.753	5.28
662.941	5.94
663.129	6.28
663.316	6.21
663.504	6.47
663.692	6.72
663.879	6.74
664.067	6.65
664.254	6.64
664.442	6.04
664.63	6.75
664.817	7.04
665.005	6.95
665.192	6.5
665.38	6.63
665.567	6.27
665.755	6.18
665.942	5.93
666.13	5.96
666.317	5.61
666.504	5.58
666.692	5.71
666.879	5.06
667.067	4.8
667.254	4.94
667.441	4.75
667.629	5.03
667.816	5.29
668.003	5.39
668.19	5.72
668.378	5.95
668.565	5.81
668.752	5.64
668.939	5.59
669.127	5.73
669.314	5.92
669.501	5.88
669.688	5.88
669.875	5.87
670.062	6
670.249	5.8
670.436	5.66
670.623	5.87
670.81	5.82
670.997	6.14
671.184	6.37
671.371	6.94
671.558	7.63
671.745	8.11
671.932	7.85
672.119	8.2
672.306	8.1
672.493	7.99
672.68	7.98
672.867	8.06
673.054	7.74
673.24	7.78
673.427	7.48
673.614	6.78
673.801	6.22
673.988	6.34
674.174	5.93
674.361	6.01
674.548	6.21
674.734	6.15
674.921	6.35
675.108	7.05
675.294	6.48
675.481	6.24
675.668	6.11
675.854	6.43
676.041	6.46
676.227	6.67
676.414	6.72
676.601	6.61
676.787	6.33
676.974	6.53
677.16	6.28
677.347	6.47
677.533	6.46
677.719	7.12
677.906	7.21
678.092	6.97
678.279	6.77
678.465	6.8
678.651	7
678.838	7.05
679.024	6.28
679.21	6.24
679.397	6.43
679.583	6.35
679.769	6.06
679.955	5.99
680.142	6.72
680.328	6.74
680.514	6.84
680.7	6.91
680.886	7.55
681.073	7.71
681.259	7.63
681.445	6.89
681.631	6.96
681.817	6.79
682.003	6.69
682.189	6.43
682.375	6.74
682.561	6.33
682.747	6.45
682.933	6.18
683.119	6.35
683.305	6.37
683.491	7.01
683.677	6.68
683.863	7.11
684.049	6.79
684.235	6.64
684.42	6.47
684.606	6.47
684.792	6.44
684.978	6.11
685.164	6.1
685.349	6.39
685.535	6.35
685.721	6.1
685.907	5.96
686.092	6.43
686.278	6.76
686.464	6.5
686.649	6.31
686.835	6
687.021	5.88
687.206	6.23
687.392	6.12
687.577	5.81
687.763	6.51
687.948	6.46
688.134	6.27
688.319	5.8
688.505	5.57
688.69	6.29
688.876	6.35
689.061	6.11
689.247	5.49
689.432	5.51
689.618	5.99
689.803	6
689.988	6.18
690.174	6.37
690.359	6.15
690.544	6.79
690.73	6.8
690.915	6.58
691.1	7.08
691.285	7.18
691.471	6.85
691.656	6.6
691.841	7.05
692.026	6.74
692.211	6.89
692.396	7.24
692.582	6.94
692.767	6.25
692.952	6.28
693.137	6.36
693.322	6.69
693.507	6.46
693.692	6.71
693.877	5.67
694.062	5.08
694.247	4.51
694.432	4.46
694.617	4.34
694.802	4.89
694.987	4.85
695.172	4.62
695.357	4.93
695.541	5.72
695.726	5.42
695.911	5.37
696.096	6
696.281	6.57
696.466	6.46
696.65	6.13
696.835	6.17
697.02	5.89
697.204	5.83
697.389	6.21
697.574	5.84
697.759	5.75
697.943	5.91
698.128	5.89
698.312	5.6
698.497	5.65
698.682	5.86
698.866	5.99
699.051	6.37
699.235	6.21
699.42	5.77
699.604	6
699.789	5.83
699.973	5.62
700.158	5.42
700.342	5.76
700.527	5.82
700.711	6.14
700.895	5.58
701.08	5.72
701.264	5.67
701.448	5.8
701.633	5.24
701.817	5.45
702.001	5.97
702.186	5.84
702.37	6.1
702.554	6.18
702.738	5.44
702.923	5.7
703.107	6.07
703.291	6.43
703.475	5.82
703.659	6.35
703.843	7.19
704.027	7
704.212	7.29
704.396	6.92
704.58	6.5
704.764	7.44
704.948	7.38
705.132	6.87
705.316	7.3
705.5	7.92
705.684	7.99
705.868	7.83
706.052	7.51
706.235	7.43
706.419	7.24
706.603	7.49
706.787	6.79
706.971	6.22
707.155	6.33
707.339	5.86
707.522	5.26
707.706	6.06
707.89	6.46
708.074	7.05
708.257	6.78
708.441	6.9
708.625	6.73
708.808	7.15
708.992	7.64
709.176	7.41
709.359	7.54
709.543	7.74
709.727	6.98
709.91	6.09
710.094	5.87
710.277	6.57
710.461	7.18
710.644	7.5
710.828	7.44
711.011	7.95
711.195	8.17
711.378	8.16
711.562	8.34
711.745	8.32
711.928	9.29
712.112	9.27
712.295	9.53
712.478	9.13
712.662	8.4
712.845	8.72
713.028	8.19
713.212	7.97
713.395	8.23
713.578	8.08
713.761	8.48
713.945	7.71
714.128	7.91
714.311	7.65
714.494	7.63
714.677	7.9
714.86	6.77
715.043	7.22
715.227	6.86
715.41	6.78
715.593	6.54
715.776	6.87
715.959	7.49
716.142	7.64
716.325	7.74
716.508	7.46
716.691	7.65
716.874	8.65
717.057	8.25
717.239	8.91
717.422	8.84
717.605	8.94
717.788	7.42
717.971	5.99
718.154	5.56
718.337	4.81
718.519	4.46
718.702	4.64
718.885	4.58
719.068	5.54
719.25	5.36
719.433	5.05
719.616	5.42
719.798	5.91
719.981	7.44
720.164	7.34
720.346	7.6
720.529	7.43
720.712	6.68
720.894	5.9
721.077	5.38
721.259	5.28
721.442	5.57
721.624	5.79
721.807	5.23
721.989	3.16
722.172	2.95
722.354	2.76
722.537	3.24
722.719	4.61
722.901	4.21
723.084	3.58
723.266	3.08
723.448	2.42
723.631	2.39
723.813	3.68
723.995	5.29
724.178	5
724.36	4.37
724.542	4.49
724.724	3.13
724.907	4.22
725.089	4.02
725.271	4.13
725.453	4.84
725.635	3.52
725.817	3.18
725.999	2.61
726.181	3.17
726.364	4.88
726.546	5.11
726.728	5.93
726.91	6.18
727.092	7.04
727.274	8
727.456	8.25
727.638	9.14
727.819	8.72
728.001	8.87
728.183	8.11
728.365	8.65
728.547	8.27
728.729	8.65
728.911	7.53
729.093	7.3
729.274	6.98
729.456	6.27
729.638	5.71
729.82	6.39
730.001	7.66
730.183	8.31
730.365	7.31
730.546	7.16
730.728	5.94
730.91	6.57
731.091	6.39
731.273	6.02
731.455	6.37
731.636	7.19
731.818	5.89
731.999	5.28
732.181	4.94
732.362	4.8
732.544	5.5
732.725	5.35
732.907	5.27
733.088	5.58
733.27	5.93
733.451	6.05
733.633	4.57
733.814	5.74
733.995	5.76
734.177	6.11
734.358	6.13
734.539	5.34
734.721	6.26
734.902	5.63
735.083	5.79
735.264	5.49
735.446	5.95
735.627	7.94
735.808	8.51
735.989	7.94
736.17	8.2
736.351	8.04
736.533	7.76
736.714	7.59
736.895	8.18
737.076	7.24
737.257	8.61
737.438	6.78
737.619	6.07
737.8	5.64
737.981	5.67
738.162	5.7
738.343	6
738.524	6.23
738.705	6.36
738.886	6.48
739.067	7.82
739.247	6.74
739.428	7.56
739.609	7.51
739.79	7.18
739.971	6.21
740.151	6.8
740.332	6.99
740.513	7.33
740.694	7.58
740.874	7.77
741.055	6.9
741.236	6.68
741.417	7.73
741.597	7.36
741.778	7.13
741.958	7.96
742.139	7.27
742.32	5.72
742.5	4.99
742.681	5.24
742.861	4.45
743.042	4.45
743.222	3.51
743.403	3.29
743.583	4.45
743.764	5.17
743.944	4.72
744.124	5.34
744.305	7.04
744.485	7.91
744.666	7.49
744.846	8.72
745.026	9.2
745.207	10.83
745.387	10.79
745.567	11.5
745.747	10.66
745.928	10.6
746.108	10.02
746.288	8.73
746.468	8.26
746.648	7.57
746.829	6.53
747.009	4.64
747.189	2.72
747.369	2.41
747.549	1.5
747.729	2.43
747.909	3.32
748.089	1.89
748.269	3.81
748.449	3.11
748.629	3.74
748.809	4.6
748.989	5.77
749.169	7.26
749.349	7.42
749.529	8.28
749.709	6.13
749.889	6.12
750.068	6.72
750.248	6.17
750.428	6.94
750.608	6.07
750.788	6.01
750.967	7.22
751.147	6.13
751.327	5.85
751.507	5.9
751.686	6.86
751.866	7.37
752.046	7.74
752.225	8.43
752.405	8.15
752.585	8.69
752.764	7.67
752.944	7.05
753.123	8.71
753.303	8.78
753.482	7.35
753.662	7.57
753.841	7.54
754.021	7.34
754.2	5.81
754.38	6.24
754.559	6.51
754.739	6.09
754.918	6.52
755.097	5.02
755.277	4.69
755.456	3.92
755.635	4.35
755.815	3.51
755.994	5.46
756.173	6.72
756.352	7.07
756.532	7.4
756.711	8.04
756.89	6.3
757.069	6.4
757.248	7.26
757.427	8.12
757.607	8.24
757.786	8.48
757.965	7.52
758.144	7.05
758.323	6.75
758.502	7.23
758.681	7.25
758.86	8.19
759.039	8.16
759.218	7.41
759.397	7.19
759.576	8.18
759.755	6.81
759.934	7.55
760.113	7.66
760.291	7.91
760.47	7.16
760.649	7.81
760.828	6.95
761.007	7.47
761.186	6.5
761.364	7.35
761.543	6.07
761.722	7.35
761.901	4.92
762.079	4.42
762.258	3.53
762.437	3.92
762.615	3.56
762.794	4.93
762.972	5.38
763.151	5.96
763.33	5.87
763.508	5.97
763.687	5.65
763.865	6.66
764.044	7.05
764.222	7.68
764.401	6.83
764.579	7.55
764.758	6.04
764.936	5.83
765.114	6.76
765.293	6.34
765.471	5.61
765.65	6.22
765.828	6.34
766.006	6.46
766.184	6.4
766.363	7.29
766.541	5.28
766.719	7.18
766.898	6.75
767.076	6.87
767.254	6.68
767.432	7.09
767.61	7
767.788	7.18
767.967	6.1
768.145	6.86
768.323	5.49
768.501	7.26
768.679	5.73
768.857	5.49
769.035	3.4
769.213	4.08
769.391	4.26
769.569	3.39
769.747	3.71
769.925	4.31
770.103	1.38
770.281	4.43
770.459	3.48
770.636	4.62
770.814	5.28
770.992	7.1
771.17	8.12
771.348	8.46
771.525	9.58
771.703	8.41
771.881	7.34
772.059	8.99
772.236	9.65
772.414	12.05
772.592	11.62
772.769	10.53
772.947	8.92
773.125	6.62
773.302	7.44
773.48	7.35
773.657	9.12
773.835	11.22
774.013	10.27
774.19	11.72
774.368	10.96
774.545	11.97
774.723	12.34
774.9	11.42
775.077	11.49
775.255	9.39
775.432	9.42
775.61	8.18
775.787	5.79
775.964	6.06
776.142	4.14
776.319	2.96
776.496	1.71
776.674	3.96
776.851	6.92
777.028	8.56
777.205	10.14
777.382	10.61
777.56	9.53
777.737	10.73
777.914	11.76
778.091	8.82
778.268	11.19
778.445	12.43
778.622	12.31
778.8	8.39
778.977	6.3
779.154	6.31
779.331	3.77
779.508	4.33
779.685	3.25
779.862	2.24
780.038	4.62
780.215	2.78
780.392	3.25
780.569	0.88
780.746	6.05
780.923	8.93
781.1	8.28
781.277	9.49
781.453	8.92
781.63	8.63
781.807	9.57
781.984	9.14
782.16	7.82
782.337	8.27
782.514	11.13
782.691	8.04
782.867	4.51
783.044	4.96
783.221	5.71
783.397	6.57
783.574	8.26
783.75	8.23
783.927	9.96
784.103	10.27
784.28	8.37
784.456	4.73
784.633	6.56
784.809	8.15
784.986	8.95
785.162	8.47
785.339	7.13
785.515	7.86
785.692	7.53
785.868	4.28
786.044	3.63
786.221	4.52
786.397	3.16
786.573	3.57
786.749	4.98
786.926	6.23
787.102	4.02
787.278	3.68
787.454	2.99
787.631	-0.23
787.807	0.69
787.983	2.64
788.159	2.86
788.335	3.22
788.511	0.89
788.687	0.75
788.863	-1.88
789.039	1.26
789.216	5.13
789.392	3.37
789.568	7.16
789.744	8.07
789.919	6.75
790.095	6.77
790.271	10.39
790.447	11.91
790.623	12.99
790.799	14.85
790.975	13.01
791.151	10.55
791.327	13.82
791.502	13.36
791.678	12.38
791.854	13.87
792.03	12.72
792.205	9.62
792.381	10.4
792.557	9.48
792.733	9.72
792.908	7.62
793.084	8.06
793.259	5.22
793.435	3.61
793.611	0.06
793.786	-1.48
793.962	-0
794.137	3.82
794.313	2.76
794.488	-0.27
794.664	-1.43
794.839	-2.04
795.015	-1.76
795.19	0.37
795.366	2.06
795.541	3.76
795.716	7.12
795.892	8.54
796.067	5.56
796.242	5.33
796.418	7.38
796.593	10.98
796.768	13.08
796.944	13.59
797.119	13.9
797.294	13.79
797.469	14.68
797.644	10.72
797.82	4.21
797.995	5.65
798.17	6.72
798.345	7.19
798.52	6.39
798.695	8.6
798.87	6.48
799.045	4.91
799.22	2.77
799.395	1.32
799.57	2.8
799.745	10.36
799.92	9.27
800.095	9.06
800.27	11.21
800.445	8
800.62	5.17
800.795	6.27
800.97	9.41
801.145	9.18
801.319	9.84
801.494	9.3
801.669	4.2
801.844	4.49
802.018	3.75
802.193	-0.07
802.368	1.93
802.543	3.04
802.717	3.12
802.892	-0.93
803.067	4.33
803.241	8.96
803.416	8.55
803.59	6.36
803.765	8.89
803.94	10.38
804.114	11.81
804.289	10.67
804.463	12.49
804.638	9.55
804.812	9.04
804.986	5.6
805.161	0.98
805.335	3.56
805.51	9.73
805.684	3.81
805.858	-1.79
806.033	1.88
806.207	0.28
806.381	-5.27
806.556	-0.59
806.73	-0.86
806.904	0.85
807.078	-3.04
807.253	-5.43
807.427	-8.4
807.601	-1.63
807.775	2.16
807.949	-2.81
808.123	1.15
808.298	5.69
808.472	2.91
808.646	6.96
808.82	6.4
808.994	11.12
809.168	13.79
809.342	14.97
809.516	12.16
809.69	16.04
809.864	17.89
810.038	14.21
810.212	13.59
810.385	13.92
810.559	9.6
810.733	9.99
810.907	7.97
811.081	6.17
811.255	9.01
811.428	7.64
811.602	5.76
811.776	7.04
811.95	9.49
812.123	10.27
812.297	11.42
812.471	15.44
812.644	14.14
812.818	14.28
812.992	15.56
813.165	8.01
813.339	6.38
813.512	4.29
813.686	-0.75
813.86	0.42
814.033	-0.5
814.207	-3.59
814.38	-4.96
814.554	-2.93
814.727	-4.36
814.9	-5.9
815.074	-1.71
815.247	2.52
815.421	4.09
815.594	4.99
815.767	5.09
815.941	-0.04
816.114	3.45
816.287	0.12
816.46	0.46
816.634	3.61
816.807	2.89
816.98	0.79
817.153	1.53
817.327	-6.99
817.5	-6.18
817.673	-13.51
817.846	-9.44
818.019	-8.39
818.192	-6.78
818.365	-11.28
818.538	-9.42
818.711	-1.88
818.884	0.63
819.057	-2.98
819.23	3.86
819.403	2.89
819.576	5.42
819.749	4.6
819.922	7.69
820.095	9.61
820.268	12.78
820.441	10.72
820.614	5.32
820.786	0.18
820.959	2.7
821.132	3.66
821.305	3.17
821.477	5.14
821.65	4.52
821.823	3.75
821.996	4.13
822.168	3.56
822.341	3.5
822.514	4.27
822.686	5.75
822.859	5.5
823.031	6.12
823.204	7.22
823.376	7.1
823.549	8.13
823.722	8.2
823.894	7.23
824.067	7.42
824.239	7.99
824.411	8.6
824.584	9.09
824.756	8.34
824.929	7.28
825.101	6.46
825.273	6.47
825.446	5.78
825.618	4.36
825.79	5.83
825.963	5.65
826.135	6.33
826.307	3.71
826.479	4.16
826.652	5.92
826.824	6.25
826.996	6.3
827.168	5.85
827.34	6.34
827.512	7.16
827.684	6.36
827.856	6.09
828.029	6.22
828.201	7.83
828.373	6.61
828.545	4.67
828.717	5.7
828.889	5.34
829.061	6.76
829.232	5.53
829.404	6.03
829.576	7.13
829.748	7.65
829.92	5.61
830.092	9.32
830.264	9.82
830.436	9.87
830.607	5.15
830.779	7.49
830.951	3.87
831.123	5.58
831.294	4.01
831.466	1.38
831.638	3.17
831.809	1.8
831.981	-4.14
832.153	-1.35
832.324	-2.4
832.496	1.54
832.667	-3.46
832.839	-0.97
833.011	0.12
833.182	3.27
833.354	7.95
833.525	4.89
833.697	6.84
833.868	9.16
834.039	8.74
834.211	12.87
834.382	8.84
834.554	10.26
834.725	9.58
834.896	8.05
835.068	7.16
835.239	7.47
835.41	6.78
835.581	6.94
835.753	3.41
835.924	3.18
836.095	-0.46
836.266	4.17
836.438	3.5
836.609	2.74
836.78	3.61
836.951	2.66
837.122	-0.6
837.293	-1.59
837.464	-2.33
837.635	4.45
837.806	5.72
837.977	8.23
838.148	2.08
838.319	5.74
838.49	5.8
838.661	5.9
838.832	9.49
839.003	9.31
839.174	11.49
839.345	12.01
839.516	9.73
839.687	6.77
839.857	10.43
840.028	13.57
840.199	4.74
840.37	6.14
840.54	8.95
840.711	6.72
840.882	0.22
841.053	1.47
841.223	-2.77
841.394	-11.28
841.564	-14.65
841.735	-29.05
841.906	-25.29
842.076	-11.98
842.247	-17.12
842.417	-19.97
842.588	-22.16
842.758	-14.98
842.929	-18.29
843.099	-27.21
843.27	-15.55
843.44	-19.46
843.611	-16.84
843.781	-4.74
843.951	-5.33
844.122	-1.79
844.292	-2.34
844.462	2.8
844.633	9.19
844.803	9.67
844.973	12.65
845.144	12.82
845.314	13.55
845.484	14.17
845.654	2.27
845.824	-4.79
845.995	-4.21
846.165	-14.88
846.335	-24.08
846.505	-41.34
846.675	-34.31
846.845	-24.61
847.015	-27.7
847.185	-10.75
847.355	-2.72
847.525	13.52
847.695	11.03
847.865	15.69
848.035	21.86
848.205	20.45
848.375	21.52
848.545	17.22
848.715	13.2
848.884	13.88
849.054	9.25
849.224	7.04
849.394	-12.13
849.564	-9.84
849.733	-30.22
849.903	-47.86
850.073	-56.69
850.243	-64.35
850.412	-46.84
850.582	-46.37
850.752	-57.96
850.921	-50.91
851.091	-76.18
851.26	-56.62
851.43	-28.45
851.599	-11.66
851.769	-12.26
851.939	-16.34
852.108	1.37
852.278	-5.73
852.447	14.51
852.616	10.25
852.786	-7.52
852.955	-8.27
853.125	0.56
853.294	-20.7
853.463	-31.56
853.633	-15.72
853.802	-6.67
853.971	-28.84
854.141	-26.95
854.31	-41.38
854.479	-27.53
854.648	-20.63
854.818	-22.94
854.987	-23.24
855.156	-47.01
855.325	-43.84
855.494	-41.55
855.663	-63.39
855.832	-67.85
856.001	-78.98
856.171	-35.63
856.34	-10.18
856.509	-12.97
856.678	-8.49
856.847	4.26
857.016	8.5
857.185	-1.77
857.353	-2.58
857.522	4.98
857.691	17.81
857.86	24.01
858.029	4.81
858.198	-11.26
858.367	-3.63
858.535	7.08
858.704	-7.82
858.873	-11.37
859.042	6.82
859.21	-11.84
859.379	-11.35
859.548	2.32
859.717	8.1
859.885	16.67
860.054	29.64
860.222	19.22
860.391	14.67
860.56	3.86
860.728	15.86
860.897	0.33
861.065	32.61
861.234	9.11
861.402	11.83
861.571	-1.81
861.739	6.93
861.908	-8.65
862.076	-38.54
862.244	-68.28
862.413	-41.07
862.581	-69.08
862.749	-27.69
862.918	-63.54
863.086	-42.64
863.254	-90.73
863.423	-75.35
863.591	-126.43
863.759	-30.37
863.927	-0.35
864.096	11.86
864.264	9.33
864.432	29.31
864.6	13.62
864.768	7.48
864.936	21.88
865.104	11.69
865.272	9.57
865.44	5.21
865.608	-10.72
865.776	-10.65
865.944	-29.86
866.112	-33.24
866.28	-51.01
866.448	-42.68
866.616	-25.72
866.784	-48.59
866.952	-30.72
867.12	-36.89
867.288	-24.23
867.455	5.81
867.623	17.13
867.791	27.32
867.959	20.48
868.127	23.11
868.294	22.26
868.462	16.17
868.63	25.71
868.797	40.86
868.965	50.32
869.133	40.2
869.3	32.99
869.468	6.16
869.636	20.84
869.803	39.68
869.971	38.42
870.138	22.12
870.306	13.44
870.473	8.29
870.641	-24.55
870.808	-82.78
870.975	-47.54
871.143	-84.63
871.31	-57
871.478	-72.39
871.645	-90.92
871.812	-85.28
871.98	-104.7
872.147	-96.06
872.314	-98.98
872.482	-48.26
872.649	-28.55
872.816	-55.66
872.983	-75.23
873.15	-39.52
873.318	-47.05
873.485	-68.01
873.652	-64.77
873.819	-59.47
873.986	-45.89
874.153	-42.48
874.32	-33.22
874.487	-25.2
874.654	17.06
874.821	43.5
874.988	18.47
875.155	29.61
875.322	36.58
875.489	33.5
875.656	63.93
875.823	48.7
875.99	53.93
876.157	51.71
876.324	44.7
876.49	18.12
876.657	4.57
876.824	24.96
876.991	6.23
877.157	12.24
877.324	15.53
877.491	18.71
877.658	20.56
877.824	18.86
877.991	19.22
878.157	16.69
878.324	35.42
878.491	27.47
878.657	36.1
878.824	52.63
878.99	37.05
879.157	25.49
879.323	-1.75
879.49	-0.89
879.656	14.01
879.823	9.41
879.989	13.83
880.156	10.46
880.322	12.82
880.488	3.45
880.655	-2.6
880.821	5.11
880.987	2.09
881.154	6.4
881.32	2.07
881.486	-6.56
881.652	1.95
881.819	1.84
881.985	-5.45
882.151	-1.11
882.317	2.09
882.483	3.39
882.649	1.58
882.816	-1.01
882.982	-3.34
883.148	-1.26
883.314	-0.09
883.48	-5.23
883.646	-5.5
883.812	-1.18
883.978	-4.67
884.144	-3.93
884.31	-4.85
884.476	-3.47
884.642	0.67
884.807	4.4
884.973	3.89
885.139	5.79
885.305	5.55
885.471	6.73
885.637	1.83
885.802	6.25
885.968	3.65
886.134	2.47
886.3	4.8
886.465	2.07
886.631	-5.85
886.797	-10.95
886.962	-15.25
887.128	-9.69
887.293	-9.54
887.459	-7.83
887.625	-18.67
887.79	-28.72
887.956	-18.71
888.121	-25.38
888.287	-28.3
888.452	-19.01
888.618	-10.01
888.783	-11.79
