Data from 2938071_Reflection_3.txt Node
Date: Sat Jul 11 20:37:09 EDT 2015
User: robert
Spectrometer: USB4E03001
Autoset integration time: false
Trigger mode: 4
Integration Time (sec): 1.000000E-1
Scans to average: 10
Electric dark correction enabled: true
Nonlinearity correction enabled: false
Boxcar width: 5
Stray light correction enabled: false
XAxis mode: Wavelengths
Stop averaging: false
Number of Pixels in Spectrum: 3648
>>>>>Begin Spectral Data<<<<<
177.566	-22.13
177.785	13.96
178.005	35.13
178.225	-13.97
178.445	-13.64
178.665	24.94
178.885	-226.46
179.105	85.75
179.324	107.77
179.544	21.68
179.764	0.99
179.984	202.98
180.204	273.66
180.423	305.27
180.643	137.46
180.863	121.73
181.083	98.63
181.302	123.77
181.522	69.33
181.742	70.54
181.961	60.11
182.181	49.75
182.401	41.39
182.621	-39.8
182.84	-36.55
183.06	-51.22
183.279	-39.1
183.499	-47.21
183.719	-56.11
183.938	-31.9
184.158	-15.22
184.377	6.92
184.597	4.07
184.816	-3.64
185.036	34.3
185.256	34.24
185.475	50.22
185.695	46.67
185.914	53.68
186.134	68.7
186.353	31.64
186.572	10.26
186.792	-65.67
187.011	-42.64
187.231	-25.5
187.45	-77.78
187.67	-31.45
187.889	-57.89
188.108	1103.64
188.328	184.37
188.547	130.35
188.766	103.1
188.986	56.05
189.205	161.6
189.424	150.83
189.644	149.69
189.863	140.09
190.082	70.39
190.302	121.75
190.521	91.21
190.74	83.38
190.959	31.71
191.178	5.98
191.398	-22.63
191.617	-40.1
191.836	-90.79
192.055	-20.01
192.274	-15.59
192.494	-238.12
192.713	-282.25
192.932	-44.06
193.151	-3.05
193.37	-3.15
193.589	3.35
193.808	1.96
194.027	5.86
194.246	7.59
194.465	-2.38
194.685	2.26
194.904	29.63
195.123	49.56
195.342	45.71
195.561	26.02
195.78	-22.92
195.999	-4.25
196.218	-16.84
196.436	-290.46
196.655	-50.97
196.874	-71.92
197.093	-282.28
197.312	-27.28
197.531	335.12
197.75	565.4
197.969	-23.03
198.188	26.81
198.407	20.8
198.625	40.27
198.844	47.47
199.063	68.21
199.282	113.4
199.501	111.45
199.719	137.81
199.938	142.59
200.157	122.71
200.376	103.58
200.594	161.69
200.813	195.12
201.032	490.46
201.251	-333.19
201.469	368.64
201.688	178.76
201.907	144.96
202.125	149.99
202.344	198.93
202.563	396.58
202.781	178.94
203	122.98
203.218	87.7
203.437	86.4
203.656	59.04
203.874	64.07
204.093	52.93
204.311	718.18
204.53	-3462.5
204.748	524.9
204.967	990.93
205.185	241.14
205.404	207.6
205.622	72.63
205.841	28.96
206.059	-174.32
206.278	-257.38
206.496	488.72
206.715	63.84
206.933	97.34
207.151	100.53
207.37	92.58
207.588	105.2
207.806	136.77
208.025	106.86
208.243	126.65
208.461	106.72
208.68	89.73
208.898	108.44
209.116	150.72
209.335	136.49
209.553	120.8
209.771	126.15
209.989	127.72
210.208	70.83
210.426	84.53
210.644	95.63
210.862	88.58
211.081	97.49
211.299	73.05
211.517	68.75
211.735	78.53
211.953	94.03
212.171	117.11
212.39	105.32
212.608	113.86
212.826	88.95
213.044	62.4
213.262	97.67
213.48	28.06
213.698	33.43
213.916	-47.47
214.134	-199.89
214.352	-163.06
214.57	-213.51
214.788	-165.63
215.006	-95.45
215.224	-66.84
215.442	-12.06
215.66	20.33
215.878	18.63
216.096	-10.06
216.314	8.61
216.532	14.86
216.75	41.58
216.968	30.58
217.185	79.06
217.403	52.31
217.621	19.11
217.839	3.39
218.057	-3.97
218.275	1.31
218.492	33.18
218.71	36.46
218.928	31.21
219.146	5.13
219.363	11.5
219.581	-19.6
219.799	-6.08
220.017	-24.88
220.234	-29.42
220.452	-27.19
220.67	13.14
220.887	23.66
221.105	12.62
221.323	27.6
221.54	44.8
221.758	19.7
221.976	7.15
222.193	6.01
222.411	-10.55
222.629	-41.82
222.846	-48.24
223.064	-115.52
223.281	-107.47
223.499	-106.56
223.716	-108.1
223.934	-159.57
224.151	-193
224.369	-164.65
224.586	-91.05
224.804	-41.24
225.021	-32.88
225.239	-22.88
225.456	13.44
225.674	3.54
225.891	2.86
226.108	5.35
226.326	13.14
226.543	18.67
226.76	21.92
226.978	12.04
227.195	15.98
227.413	14.96
227.63	13.32
227.847	12.69
228.064	12.1
228.282	11.93
228.499	12.69
228.716	10.82
228.934	10.21
229.151	11.66
229.368	13.67
229.585	13.23
229.802	13.97
230.02	13.29
230.237	12.7
230.454	14.26
230.671	12.76
230.888	15.61
231.105	14.03
231.323	16.71
231.54	17.21
231.757	14.31
231.974	16.37
232.191	18.82
232.408	22.3
232.625	23.43
232.842	19.63
233.059	21.47
233.276	15.47
233.493	21.87
233.71	22.75
233.927	23.32
234.144	22.82
234.361	19.89
234.578	19.18
234.795	18.01
235.012	18.44
235.229	18.67
235.446	17.55
235.663	20.16
235.879	21.56
236.096	21.31
236.313	22.38
236.53	16.53
236.747	19.05
236.964	16.48
237.181	15.82
237.397	14.22
237.614	14.63
237.831	23.7
238.048	23.76
238.264	19.18
238.481	16.12
238.698	15.2
238.915	21.39
239.131	19.35
239.348	23.18
239.565	23.22
239.781	25.61
239.998	26.75
240.215	23.44
240.431	21.74
240.648	23.19
240.865	23.09
241.081	23.42
241.298	22.93
241.514	22.59
241.731	20.48
241.947	18.35
242.164	16.99
242.38	15.2
242.597	12.96
242.814	11.6
243.03	11.17
243.246	9.89
243.463	9.03
243.679	10.92
243.896	11.71
244.112	11.31
244.329	12.03
244.545	13.31
244.762	15.14
244.978	15.37
245.194	17.93
245.411	16.96
245.627	16.2
245.843	14.35
246.06	11.8
246.276	8.39
246.492	8.5
246.709	8.66
246.925	7.95
247.141	9.07
247.357	9.24
247.574	9.24
247.79	8.04
248.006	8.99
248.222	9.16
248.439	8.76
248.655	10.18
248.871	10.11
249.087	9.57
249.303	9.15
249.519	6.88
249.736	6.11
249.952	4.65
250.168	8.85
250.384	5.68
250.6	4.91
250.816	6.21
251.032	6.43
251.248	6.84
251.464	7.75
251.68	8.21
251.896	8.35
252.112	8.18
252.328	9.1
252.544	5.94
252.76	6.08
252.976	6.24
253.192	6.61
253.408	5.3
253.624	4.8
253.84	1.89
254.056	0.2
254.272	-1.19
254.487	-1.65
254.703	-2.38
254.919	-0.6
255.135	2.69
255.351	2.11
255.567	0.92
255.782	0.66
255.998	3.84
256.214	8.51
256.43	10.59
256.646	15.87
256.861	19.58
257.077	18.94
257.293	16.87
257.508	15.15
257.724	12.64
257.94	13.43
258.155	12.04
258.371	10.75
258.587	11.09
258.802	9.49
259.018	7.16
259.234	5.91
259.449	5.95
259.665	6.67
259.88	7.29
260.096	8.26
260.312	7.74
260.527	8.26
260.743	9.03
260.958	8.66
261.174	9.26
261.389	10.23
261.605	10.16
261.82	10.96
262.036	10.11
262.251	10.11
262.466	9.4
262.682	9.18
262.897	8.85
263.113	7.31
263.328	7.45
263.543	5.32
263.759	1.56
263.974	0.44
264.189	-0.58
264.405	1.48
264.62	-0.26
264.835	0.37
265.051	1.1
265.266	2.12
265.481	0.05
265.696	-0.98
265.912	1.01
266.127	3.85
266.342	6.31
266.557	5.49
266.773	4.47
266.988	4.72
267.203	2.68
267.418	3.69
267.633	3.62
267.848	4.5
268.064	5.13
268.279	5.09
268.494	4.89
268.709	4.27
268.924	3.91
269.139	4.72
269.354	6.47
269.569	8.3
269.784	8.14
269.999	7.49
270.214	6.15
270.429	5.02
270.644	5.23
270.859	6.93
271.074	6.53
271.289	7.1
271.504	8.59
271.719	8.27
271.934	8.5
272.149	7.87
272.363	8.92
272.578	10.3
272.793	10.67
273.008	10.73
273.223	10.58
273.438	9.94
273.653	9.17
273.867	8.02
274.082	7.89
274.297	8.63
274.512	8.25
274.726	8.22
274.941	8.42
275.156	8.24
275.371	9.73
275.585	7.9
275.8	9.53
276.015	10.26
276.229	9.67
276.444	8.93
276.659	8.29
276.873	10.14
277.088	9.09
277.302	7.37
277.517	7.09
277.732	5.63
277.946	7.25
278.161	7.53
278.375	8.89
278.59	9.89
278.804	11.38
279.019	12.43
279.233	10.73
279.448	10.35
279.662	10.89
279.877	11.53
280.091	11.97
280.306	11.58
280.52	11.8
280.735	10.42
280.949	9.22
281.163	8.86
281.378	8.98
281.592	9.49
281.806	11.1
282.021	11.77
282.235	12.13
282.449	11.52
282.664	11.98
282.878	11.1
283.092	11.6
283.307	12.41
283.521	11.69
283.735	10.41
283.949	10.2
284.164	9
284.378	10.14
284.592	10.06
284.806	10.15
285.02	9.62
285.234	9.54
285.449	9.85
285.663	9.7
285.877	10.1
286.091	10.29
286.305	9.72
286.519	10.83
286.733	10.11
286.947	9.18
287.161	8.14
287.375	7.32
287.589	6.66
287.803	6.31
288.017	6.03
288.231	5.74
288.445	5.71
288.659	5.73
288.873	4.32
289.087	4.32
289.301	6.74
289.515	8.84
289.729	9.46
289.943	10.5
290.157	10.3
290.371	11.37
290.584	11.88
290.798	11.33
291.012	11.88
291.226	13.37
291.44	13.83
291.654	12.92
291.867	13.75
292.081	14.78
292.295	13.52
292.509	13.83
292.722	14.14
292.936	14.81
293.15	17.15
293.364	17.44
293.577	16.53
293.791	15.95
294.005	16.58
294.218	16.35
294.432	16.92
294.645	18.56
294.859	19.06
295.073	17.47
295.286	17.03
295.5	16.15
295.713	15.83
295.927	17.01
296.14	17.21
296.354	16.67
296.568	16.12
296.781	13.8
296.994	13.99
297.208	13.65
297.421	14.15
297.635	13.77
297.848	13.81
298.062	14.47
298.275	14.04
298.489	14.79
298.702	15.06
298.915	15.36
299.129	17.24
299.342	15.78
299.555	17.31
299.769	18.3
299.982	18.49
300.195	18.79
300.409	19.18
300.622	18.43
300.835	18.14
301.048	16.83
301.262	17.09
301.475	17.31
301.688	18.3
301.901	17.53
302.115	17.69
302.328	18.05
302.541	17.85
302.754	18.33
302.967	18.24
303.18	18.47
303.393	20.09
303.607	20.67
303.82	19.75
304.033	19.82
304.246	18.51
304.459	18.62
304.672	18.29
304.885	18.58
305.098	18.14
305.311	19.35
305.524	20.21
305.737	21.01
305.95	21.13
306.163	21.15
306.376	21.79
306.589	22.23
306.802	21.29
307.015	22.69
307.228	23.53
307.44	23.74
307.653	23.39
307.866	23.79
308.079	23.13
308.292	23.14
308.505	24.14
308.718	23.82
308.93	24.09
309.143	23.61
309.356	22.1
309.569	21.12
309.781	20.53
309.994	20.51
310.207	19.12
310.42	19.21
310.632	19.64
310.845	20.22
311.058	20.8
311.27	20.13
311.483	21.41
311.696	22.76
311.908	22.98
312.121	22.19
312.333	22.91
312.546	23.55
312.759	24.91
312.971	22.76
313.184	22.35
313.396	22.99
313.609	24.37
313.821	23.92
314.034	21.37
314.246	21.91
314.459	23.41
314.671	22.84
314.884	22.91
315.096	20.58
315.309	21.27
315.521	21.52
315.733	19.76
315.946	19.76
316.158	20.16
316.371	23.36
316.583	23.57
316.795	22.69
317.008	24.36
317.22	24.4
317.432	24.97
317.644	26.46
317.857	26.86
318.069	26.68
318.281	26.93
318.494	26.87
318.706	26.99
318.918	26.01
319.13	27.6
319.342	27.08
319.555	25.77
319.767	25.23
319.979	24.65
320.191	23.56
320.403	24.07
320.615	22.28
320.827	22.11
321.039	21.77
321.252	22.66
321.464	22.19
321.676	22.04
321.888	23.27
322.1	24.41
322.312	25.67
322.524	26.87
322.736	28.43
322.948	30.11
323.16	31.91
323.372	32.99
323.584	33.13
323.796	34.53
324.007	34.48
324.219	35.07
324.431	35.26
324.643	35.35
324.855	36.7
325.067	37.58
325.279	38.31
325.491	37.69
325.702	37.73
325.914	38.63
326.126	38.48
326.338	40.93
326.55	41.06
326.761	42.17
326.973	43.48
327.185	41.94
327.396	41.44
327.608	41.87
327.82	43.24
328.032	43.41
328.243	44.15
328.455	45.02
328.666	43.47
328.878	46.32
329.09	46.56
329.301	46.28
329.513	48.04
329.725	49.25
329.936	50.92
330.148	50.96
330.359	52.4
330.571	53.97
330.782	55.57
330.994	58.29
331.205	57.71
331.417	58.97
331.628	60.93
331.84	62.8
332.051	63.77
332.262	63.04
332.474	63.52
332.685	63.99
332.897	64.36
333.108	64.11
333.319	63.37
333.531	63.41
333.742	63.72
333.953	64.06
334.165	63.75
334.376	65.35
334.587	65.82
334.799	67.02
335.01	67.47
335.221	67.21
335.432	67.82
335.644	68.4
335.855	69.2
336.066	69.97
336.277	70.07
336.488	70.14
336.7	69
336.911	70.37
337.122	72.24
337.333	72.56
337.544	73.9
337.755	74.01
337.966	74.76
338.177	74.85
338.388	75.06
338.599	74.93
338.811	75.65
339.022	76.31
339.233	76.16
339.444	74.71
339.655	75.3
339.866	74.74
340.076	74.94
340.287	74.12
340.498	74.84
340.709	74.77
340.92	74.34
341.131	73.66
341.342	72.96
341.553	73.67
341.764	74.29
341.975	74.7
342.185	75.46
342.396	75.09
342.607	75.04
342.818	74.78
343.029	75.46
343.239	76.36
343.45	77.09
343.661	78.12
343.872	77.49
344.082	76.82
344.293	76.22
344.504	74.49
344.714	73.63
344.925	74.39
345.136	74.75
345.346	73.76
345.557	73.35
345.768	74.1
345.978	74.34
346.189	75.69
346.399	75.85
346.61	76.61
346.821	78.38
347.031	80.07
347.242	79.53
347.452	79.41
347.663	80.44
347.873	80.79
348.084	80.07
348.294	79.68
348.504	78.11
348.715	79.14
348.925	78.67
349.136	77.69
349.346	77.71
349.557	78.32
349.767	78.69
349.977	78.17
350.188	78.28
350.398	78.33
350.608	79.1
350.819	79.46
351.029	79.39
351.239	78.77
351.449	79.23
351.66	78.51
351.87	77.95
352.08	78.43
352.29	78.11
352.501	79.3
352.711	80.47
352.921	79.91
353.131	79.36
353.341	77.85
353.552	77.93
353.762	77.32
353.972	77.71
354.182	78.59
354.392	76.34
354.602	76.36
354.812	75.32
355.022	74.57
355.232	74.63
355.442	75.89
355.652	76.81
355.862	77.16
356.072	77.69
356.282	77.65
356.492	76.57
356.702	77.95
356.912	78.09
357.122	77.65
357.332	77.09
357.542	76.94
357.752	75.64
357.962	76.12
358.171	76.15
358.381	75.77
358.591	75.47
358.801	76.28
359.011	76.12
359.221	76.11
359.43	76.48
359.64	75.38
359.85	75.51
360.06	75.75
360.269	74.4
360.479	74.04
360.689	74.38
360.899	74.51
361.108	73.58
361.318	73.7
361.528	73.66
361.737	73.47
361.947	74.82
362.156	75.02
362.366	75.02
362.576	75.17
362.785	74.81
362.995	74.1
363.204	73.92
363.414	74.7
363.623	74.31
363.833	73.41
364.042	73.22
364.252	71.76
364.461	70.6
364.671	70.59
364.88	70.12
365.09	69.62
365.299	70.55
365.509	70.71
365.718	70.28
365.927	69.84
366.137	69.77
366.346	70.03
366.555	70.54
366.765	70.43
366.974	69.45
367.183	69.79
367.393	69.76
367.602	69.12
367.811	68.34
368.021	67.14
368.23	67.1
368.439	66.46
368.648	65.15
368.857	65.44
369.067	65.52
369.276	64.99
369.485	64.25
369.694	64.36
369.903	63.75
370.112	63.8
370.321	63.75
370.531	63.43
370.74	63.8
370.949	63.93
371.158	63.62
371.367	62.74
371.576	62.7
371.785	62.34
371.994	62.28
372.203	61.59
372.412	61.32
372.621	61.01
372.83	61.67
373.039	61.14
373.248	60.74
373.457	59.56
373.666	59.7
373.874	59.78
374.083	59.66
374.292	58.52
374.501	58.49
374.71	57.79
374.919	57.08
375.128	56.07
375.336	55.82
375.545	55.45
375.754	55.93
375.963	55.77
376.171	55.84
376.38	55.25
376.589	55.51
376.798	55.82
377.006	55.46
377.215	56.37
377.424	56.28
377.632	55.68
377.841	55.61
378.05	55.39
378.258	54.9
378.467	54.39
378.675	54.3
378.884	53.86
379.093	53.4
379.301	53.04
379.51	52.17
379.718	51.7
379.927	51.25
380.135	50.65
380.344	50.25
380.552	50.5
380.761	50.6
380.969	50.9
381.177	50.76
381.386	50.32
381.594	50.71
381.803	50.04
382.011	49.91
382.219	50.13
382.428	50.02
382.636	49.92
382.845	49.31
383.053	48.48
383.261	47.8
383.469	47.58
383.678	47.65
383.886	47.21
384.094	47.36
384.302	46.88
384.511	47.21
384.719	46.95
384.927	46.1
385.135	45.83
385.343	45.93
385.552	45.79
385.76	45.59
385.968	44.78
386.176	44.16
386.384	43.8
386.592	43.59
386.8	43.21
387.008	42.65
387.216	42.53
387.424	42.19
387.633	41.89
387.841	41.35
388.049	40.75
388.257	40.67
388.465	40.52
388.672	40.18
388.88	39.36
389.088	39.07
389.296	39.29
389.504	39.21
389.712	38.94
389.92	38.51
390.128	38.36
390.336	38.41
390.544	37.69
390.751	37.46
390.959	37.3
391.167	37.45
391.375	37.1
391.583	36.99
391.79	36.7
391.998	36.62
392.206	36.56
392.414	36.24
392.621	35.88
392.829	36.01
393.037	35.71
393.244	35.68
393.452	35.66
393.66	35.39
393.867	34.98
394.075	34.77
394.283	34.52
394.49	34.16
394.698	34.1
394.905	33.97
395.113	33.65
395.32	33.16
395.528	32.83
395.735	32.68
395.943	32.79
396.15	32.77
396.358	32.74
396.565	32.6
396.773	32.47
396.98	32.63
397.188	32.7
397.395	32.72
397.602	33.31
397.81	33.08
398.017	33
398.225	32.38
398.432	32.21
398.639	31.92
398.847	31.8
399.054	31.58
399.261	31.57
399.468	31.24
399.676	31.05
399.883	30.89
400.09	30.74
400.297	30.52
400.505	31.06
400.712	31.19
400.919	31.01
401.126	31.18
401.333	31.35
401.54	30.63
401.748	30.72
401.955	30.65
402.162	30.39
402.369	30.5
402.576	30.35
402.783	29.9
402.99	29.69
403.197	29.84
403.404	29.59
403.611	29.42
403.818	29.59
404.025	29.39
404.232	29.32
404.439	29.11
404.646	28.84
404.853	28.63
405.06	28.52
405.267	28.36
405.474	28.24
405.681	28.29
405.887	28.26
406.094	27.97
406.301	28.09
406.508	28.19
406.715	28.37
406.922	28.55
407.128	28.82
407.335	28.84
407.542	28.97
407.749	28.72
407.955	28.37
408.162	28.19
408.369	28.42
408.575	28.28
408.782	28.04
408.989	28.07
409.195	27.82
409.402	27.52
409.609	27.58
409.815	27.31
410.022	27.63
410.228	27.55
410.435	27.35
410.642	27.32
410.848	27.27
411.055	27.55
411.261	27.68
411.468	27.51
411.674	27.72
411.881	27.63
412.087	27.56
412.294	27.46
412.5	27.66
412.706	27.99
412.913	28
413.119	28.05
413.326	27.95
413.532	27.69
413.738	27.82
413.945	27.37
414.151	27.19
414.357	27.16
414.564	26.94
414.77	26.79
414.976	26.87
415.182	26.39
415.389	26.28
415.595	26.12
415.801	25.97
416.007	25.76
416.214	25.86
416.42	25.99
416.626	25.9
416.832	25.91
417.038	25.91
417.244	25.45
417.45	25.55
417.657	25.42
417.863	25.35
418.069	25.39
418.275	25.48
418.481	25.42
418.687	25.21
418.893	25.17
419.099	25.32
419.305	25.31
419.511	25.42
419.717	25.47
419.923	25.36
420.129	25.28
420.335	25.1
420.541	25.12
420.746	25.09
420.952	25.12
421.158	25.11
421.364	24.89
421.57	24.95
421.776	24.98
421.982	24.96
422.187	24.88
422.393	24.81
422.599	25
422.805	24.89
423.01	24.86
423.216	24.83
423.422	24.83
423.628	24.74
423.833	24.6
424.039	24.46
424.245	24.33
424.45	24.38
424.656	24.34
424.862	24.09
425.067	24.13
425.273	24.07
425.478	23.98
425.684	23.95
425.889	23.93
426.095	23.82
426.301	23.75
426.506	23.76
426.712	23.7
426.917	23.76
427.123	23.75
427.328	23.7
427.533	23.68
427.739	23.83
427.944	23.92
428.15	23.87
428.355	23.96
428.561	24.03
428.766	24.01
428.971	24.02
429.177	23.99
429.382	24.14
429.587	23.93
429.793	23.79
429.998	23.52
430.203	23.3
430.408	23.27
430.614	23.32
430.819	23.38
431.024	23.5
431.229	23.57
431.434	23.56
431.64	23.36
431.845	23.42
432.05	23.41
432.255	23.53
432.46	23.75
432.665	23.86
432.87	23.93
433.076	23.86
433.281	23.63
433.486	23.56
433.691	23.62
433.896	23.58
434.101	23.71
434.306	23.79
434.511	23.77
434.716	23.64
434.921	23.64
435.126	23.43
435.331	23.47
435.535	23.68
435.74	23.68
435.945	23.59
436.15	23.79
436.355	23.64
436.56	23.8
436.765	23.75
436.97	23.71
437.174	23.65
437.379	23.93
437.584	23.98
437.789	23.85
437.993	23.93
438.198	23.87
438.403	23.7
438.608	23.78
438.812	23.73
439.017	23.57
439.222	23.78
439.426	23.8
439.631	23.71
439.836	23.76
440.04	23.84
440.245	23.82
440.45	23.94
440.654	24.16
440.859	24.14
441.063	24.03
441.268	24.14
441.472	24.01
441.677	23.94
441.881	23.96
442.086	23.96
442.29	23.98
442.495	24.05
442.699	24.13
442.904	24.1
443.108	24.24
443.312	24.35
443.517	24.28
443.721	24.23
443.925	24.3
444.13	24.2
444.334	24.11
444.538	24.06
444.743	23.94
444.947	23.8
445.151	23.68
445.356	23.7
445.56	23.58
445.764	23.74
445.968	23.78
446.173	23.88
446.377	23.76
446.581	23.75
446.785	23.71
446.989	23.61
447.193	23.47
447.398	23.46
447.602	23.27
447.806	23.27
448.01	23.16
448.214	23.03
448.418	22.9
448.622	22.83
448.826	22.76
449.03	22.64
449.234	22.73
449.438	22.99
449.642	22.81
449.846	22.93
450.05	22.89
450.254	22.9
450.458	23.01
450.662	23
450.866	23.14
451.069	23.09
451.273	23.18
451.477	22.94
451.681	22.89
451.885	22.87
452.089	22.79
452.292	22.77
452.496	22.85
452.7	22.69
452.904	22.71
453.107	22.65
453.311	22.65
453.515	22.71
453.719	22.95
453.922	22.87
454.126	23.13
454.33	23.24
454.533	23.21
454.737	22.92
454.94	22.92
455.144	22.75
455.348	22.78
455.551	22.78
455.755	22.56
455.958	22.52
456.162	22.54
456.365	22.37
456.569	22.08
456.772	22.2
456.976	22.19
457.179	22.32
457.383	22.42
457.586	22.44
457.79	22.49
457.993	22.49
458.196	22.57
458.4	22.61
458.603	22.69
458.807	22.77
459.01	22.82
459.213	22.96
459.417	22.98
459.62	22.95
459.823	22.8
460.026	22.81
460.23	22.88
460.433	22.86
460.636	22.8
460.839	22.75
461.042	22.77
461.246	22.7
461.449	22.7
461.652	22.59
461.855	22.72
462.058	22.62
462.261	22.71
462.464	22.72
462.668	22.73
462.871	22.94
463.074	23.11
463.277	23.14
463.48	23.29
463.683	23.22
463.886	23.21
464.089	23.26
464.292	23.4
464.495	23.39
464.698	23.49
464.901	23.34
465.104	23.36
465.306	23.35
465.509	23.67
465.712	23.67
465.915	23.86
466.118	23.92
466.321	24.02
466.524	24.33
466.726	24.4
466.929	24.28
467.132	24.38
467.335	24.32
467.538	24.25
467.74	24
467.943	24.01
468.146	24.18
468.348	24.2
468.551	24.11
468.754	24.06
468.956	24.03
469.159	24.11
469.362	24.07
469.564	24.05
469.767	24.1
469.969	24.35
470.172	24.22
470.375	24.16
470.577	24.18
470.78	24.15
470.982	24.14
471.185	24.11
471.387	24.19
471.59	24.25
471.792	24.16
471.995	24.28
472.197	24.16
472.399	24.4
472.602	24.25
472.804	24.43
473.007	24.5
473.209	24.45
473.411	24.48
473.614	24.26
473.816	24.19
474.018	24.34
474.22	24.22
474.423	24.24
474.625	24.17
474.827	24.2
475.03	24.03
475.232	23.84
475.434	23.89
475.636	23.82
475.838	24.15
476.04	24.22
476.243	24.35
476.445	24.26
476.647	24.14
476.849	24.01
477.051	23.98
477.253	24.04
477.455	23.93
477.657	23.94
477.859	23.98
478.061	23.95
478.263	23.92
478.465	23.63
478.667	23.74
478.869	23.8
479.071	23.86
479.273	23.79
479.475	23.74
479.677	23.79
479.879	23.71
480.081	23.8
480.283	23.57
480.485	23.48
480.686	23.63
480.888	23.6
481.09	23.47
481.292	23.39
481.494	23.42
481.695	23.41
481.897	23.5
482.099	23.52
482.301	23.37
482.502	23.39
482.704	23.47
482.906	23.42
483.107	23.35
483.309	23.33
483.511	23.36
483.712	23.35
483.914	23.33
484.115	23.26
484.317	23.26
484.519	23.24
484.72	23.23
484.922	23.21
485.123	23.19
485.325	23.23
485.526	23.22
485.728	23.2
485.929	23.24
486.131	23.26
486.332	23.28
486.534	23.24
486.735	23.22
486.936	23.19
487.138	23.15
487.339	23.23
487.541	23.2
487.742	23.23
487.943	23.18
488.144	23.14
488.346	23.16
488.547	23.16
488.748	23.12
488.95	23.2
489.151	23.29
489.352	23.31
489.553	23.29
489.755	23.31
489.956	23.36
490.157	23.38
490.358	23.49
490.559	23.5
490.76	23.56
490.961	23.63
491.163	23.59
491.364	23.63
491.565	23.68
491.766	23.59
491.967	23.63
492.168	23.66
492.369	23.63
492.57	23.53
492.771	23.48
492.972	23.49
493.173	23.52
493.374	23.6
493.575	23.59
493.776	23.58
493.976	23.67
494.177	23.7
494.378	23.63
494.579	23.82
494.78	23.97
494.981	24.14
495.182	24.29
495.382	24.32
495.583	24.4
495.784	24.36
495.985	24.49
496.185	24.58
496.386	24.63
496.587	24.64
496.788	24.62
496.988	24.52
497.189	24.54
497.39	24.48
497.59	24.57
497.791	24.65
497.992	24.72
498.192	24.78
498.393	24.74
498.593	24.82
498.794	24.9
498.994	25
499.195	25.09
499.395	25.17
499.596	25.35
499.796	25.27
499.997	25.29
500.197	25.34
500.398	25.35
500.598	25.37
500.799	25.33
500.999	25.53
501.199	25.68
501.4	25.81
501.6	25.87
501.801	25.75
502.001	26.12
502.201	26.14
502.402	26.33
502.602	26.35
502.802	26.6
503.002	26.72
503.203	26.77
503.403	26.78
503.603	27.02
503.803	27.14
504.003	27.5
504.204	27.45
504.404	27.35
504.604	27.38
504.804	27.52
505.004	27.58
505.204	27.75
505.404	27.89
505.604	28.08
505.804	28.11
506.005	28.15
506.205	28.3
506.405	28.29
506.605	28.61
506.805	28.71
507.005	28.95
507.204	28.96
507.404	29.18
507.604	29.21
507.804	29.08
508.004	29.2
508.204	29.51
508.404	29.44
508.604	29.61
508.804	29.66
509.003	29.65
509.203	29.61
509.403	29.79
509.603	29.8
509.803	30.09
510.002	30.46
510.202	30.53
510.402	30.48
510.602	30.75
510.801	30.93
511.001	31.17
511.201	31.52
511.4	31.71
511.6	31.83
511.8	31.98
511.999	32.03
512.199	32.05
512.398	32.41
512.598	32.62
512.797	32.6
512.997	32.7
513.197	32.78
513.396	32.81
513.596	32.88
513.795	32.99
513.994	32.93
514.194	33.02
514.393	33.17
514.593	32.97
514.792	33.11
514.992	33.19
515.191	33.37
515.39	33.48
515.59	33.46
515.789	33.5
515.988	33.61
516.188	33.81
516.387	33.82
516.586	33.98
516.786	34.12
516.985	34.17
517.184	34.39
517.383	34.63
517.582	34.63
517.782	34.78
517.981	34.98
518.18	35.11
518.379	35.26
518.578	35.35
518.777	35.28
518.976	35.47
519.176	35.54
519.375	35.56
519.574	35.46
519.773	35.61
519.972	35.71
520.171	35.69
520.37	35.69
520.569	35.7
520.768	35.81
520.967	35.94
521.166	35.84
521.365	35.94
521.564	36.03
521.762	36.15
521.961	36.23
522.16	36.34
522.359	36.48
522.558	36.64
522.757	36.76
522.956	36.71
523.154	36.86
523.353	37.01
523.552	37.04
523.751	37.05
523.949	37.15
524.148	37.03
524.347	37.14
524.546	37.14
524.744	37.19
524.943	37.17
525.142	37.31
525.34	37.45
525.539	37.55
525.737	37.59
525.936	37.54
526.135	37.52
526.333	37.68
526.532	37.68
526.73	37.85
526.929	37.88
527.127	37.96
527.326	38
527.524	37.99
527.723	38.04
527.921	38.07
528.12	38.12
528.318	38.21
528.516	38.21
528.715	38.26
528.913	38.27
529.112	38.28
529.31	38.41
529.508	38.43
529.707	38.45
529.905	38.49
530.103	38.52
530.301	38.72
530.5	38.75
530.698	38.91
530.896	38.92
531.094	38.87
531.293	39.02
531.491	39.03
531.689	39.1
531.887	39.21
532.085	39.28
532.283	39.36
532.481	39.32
532.68	39.37
532.878	39.4
533.076	39.46
533.274	39.49
533.472	39.43
533.67	39.4
533.868	39.37
534.066	39.32
534.264	39.29
534.462	39.3
534.66	39.31
534.858	39.31
535.056	39.21
535.253	39.14
535.451	39.29
535.649	39.41
535.847	39.47
536.045	39.59
536.243	39.76
536.441	39.75
536.638	39.74
536.836	39.77
537.034	39.8
537.232	39.88
537.43	39.99
537.627	39.95
537.825	40.01
538.023	39.93
538.22	40.05
538.418	39.99
538.616	40
538.813	40.09
539.011	40.13
539.209	40.2
539.406	40.23
539.604	40.22
539.801	40.26
539.999	40.26
540.196	40.24
540.394	40.14
540.591	40.08
540.789	40.1
540.986	39.99
541.184	40.07
541.381	40.03
541.579	40.02
541.776	40.05
541.974	40.03
542.171	40
542.368	40.01
542.566	40.04
542.763	40.08
542.96	40.11
543.158	40.16
543.355	40.07
543.552	40.01
543.75	39.98
543.947	39.93
544.144	39.97
544.341	39.88
544.539	39.85
544.736	39.86
544.933	39.77
545.13	39.78
545.327	39.83
545.524	39.85
545.722	39.91
545.919	40
546.116	40.06
546.313	40.05
546.51	40.17
546.707	40.25
546.904	40.28
547.101	40.41
547.298	40.42
547.495	40.54
547.692	40.62
547.889	40.75
548.086	40.71
548.283	40.73
548.48	40.82
548.677	40.8
548.874	40.87
549.07	40.68
549.267	40.56
549.464	40.6
549.661	40.51
549.858	40.57
550.055	40.33
550.251	40.49
550.448	40.39
550.645	40.31
550.842	40.32
551.038	40.31
551.235	40.54
551.432	40.85
551.628	40.97
551.825	40.91
552.022	40.81
552.218	41.01
552.415	41
552.612	41.2
552.808	41.2
553.005	41.26
553.201	41.31
553.398	41.26
553.594	41.3
553.791	41.2
553.987	41.37
554.184	41.55
554.38	41.56
554.577	41.55
554.773	41.56
554.97	41.61
555.166	41.69
555.362	41.73
555.559	41.83
555.755	41.73
555.952	41.75
556.148	41.6
556.344	41.36
556.541	41.57
556.737	41.44
556.933	41.46
557.129	41.48
557.326	41.56
557.522	41.81
557.718	41.98
557.914	41.77
558.11	41.82
558.307	42.04
558.503	42.18
558.699	42.11
558.895	42.29
559.091	42.23
559.287	42.26
559.483	42.34
559.679	41.95
559.876	41.7
560.072	41.73
560.268	41.66
560.464	41.61
560.66	41.58
560.856	41.65
561.052	41.65
561.247	41.7
561.443	41.66
561.639	41.45
561.835	41.62
562.031	41.76
562.227	41.92
562.423	42.04
562.619	42.19
562.815	42.33
563.01	42.19
563.206	42.02
563.402	42.01
563.598	41.95
563.793	42.12
563.989	41.98
564.185	42
564.381	42.1
564.576	42.01
564.772	41.73
564.968	41.69
565.163	41.71
565.359	41.94
565.555	41.91
565.75	42.02
565.946	42.06
566.141	42.09
566.337	42.05
566.532	41.96
566.728	41.91
566.923	42
567.119	41.91
567.314	41.97
567.51	41.82
567.705	41.84
567.901	41.86
568.096	41.76
568.292	41.9
568.487	41.93
568.682	42.01
568.878	42.17
569.073	42.42
569.268	42.54
569.464	42.64
569.659	42.71
569.854	42.68
570.05	42.51
570.245	42.78
570.44	42.76
570.635	42.9
570.831	42.94
571.026	42.83
571.221	42.62
571.416	42.63
571.611	42.64
571.806	42.66
572.002	42.7
572.197	42.88
572.392	42.76
572.587	42.6
572.782	42.48
572.977	42.36
573.172	42.36
573.367	42.44
573.562	42.43
573.757	42.28
573.952	42.4
574.147	42.42
574.342	42.38
574.537	42.41
574.732	42.52
574.927	42.36
575.121	42.42
575.316	42.3
575.511	42.32
575.706	42.19
575.901	42.27
576.096	42.09
576.29	42.04
576.485	42.23
576.68	41.99
576.875	42.04
577.069	42.26
577.264	42.17
577.459	42.36
577.654	42.15
577.848	42.33
578.043	42.01
578.238	42.33
578.432	42.12
578.627	41.95
578.821	42.04
579.016	41.95
579.21	41.77
579.405	41.76
579.6	42.1
579.794	42.19
579.989	42.2
580.183	42.61
580.378	42.53
580.572	42.97
580.766	42.74
580.961	42.85
581.155	42.85
581.35	43.06
581.544	43.15
581.738	43.19
581.933	43.24
582.127	42.9
582.321	42.83
582.516	42.74
582.71	42.63
582.904	42.99
583.099	43.11
583.293	43.19
583.487	43.03
583.681	43.01
583.875	42.85
584.07	42.77
584.264	42.74
584.458	42.69
584.652	42.74
584.846	42.77
585.04	42.45
585.234	42.32
585.428	42.58
585.623	42.76
585.817	42.97
586.011	42.67
586.205	42.92
586.399	43.23
586.593	43.17
586.787	42.94
586.981	42.74
587.174	42.96
587.368	43.16
587.562	42.95
587.756	43.03
587.95	43.04
588.144	43.24
588.338	43.33
588.532	43.21
588.725	43.19
588.919	43.17
589.113	43.26
589.307	43.27
589.501	43.16
589.694	43.17
589.888	43.16
590.082	43.11
590.275	43.09
590.469	42.82
590.663	43.02
590.856	43.17
591.05	43.11
591.244	43.07
591.437	43.07
591.631	43.09
591.824	43.1
592.018	42.89
592.212	42.88
592.405	42.68
592.599	42.79
592.792	42.76
592.986	42.6
593.179	42.74
593.372	43
593.566	43.21
593.759	43.21
593.953	43.28
594.146	43.35
594.339	43.33
594.533	43.66
594.726	43.61
594.92	43.59
595.113	43.75
595.306	43.82
595.499	43.83
595.693	43.62
595.886	43.9
596.079	44.06
596.272	44.06
596.466	44.22
596.659	44.21
596.852	44.4
597.045	44.51
597.238	44.48
597.431	44.61
597.624	44.6
597.818	44.78
598.011	44.59
598.204	44.42
598.397	44.49
598.59	44.26
598.783	44.28
598.976	43.92
599.169	43.86
599.362	43.94
599.555	44.07
599.748	43.96
599.941	44.04
600.134	43.77
600.326	44
600.519	44
600.712	44.35
600.905	44.12
601.098	44.58
601.291	44.63
601.483	44.64
601.676	44.25
601.869	44.62
602.062	44.3
602.255	44.78
602.447	44.59
602.64	44.82
602.833	44.51
603.025	44.56
603.218	44.11
603.411	43.92
603.603	44.05
603.796	44.24
603.989	44
604.181	44.08
604.374	44.02
604.566	44.07
604.759	43.94
604.951	44.01
605.144	44.09
605.336	44.42
605.529	44.66
605.721	44.43
605.914	44.45
606.106	44.38
606.299	44.3
606.491	44.12
606.683	43.97
606.876	44.18
607.068	44.34
607.26	44.41
607.453	44.31
607.645	44.25
607.837	44.57
608.03	44.45
608.222	44.77
608.414	44.81
608.606	44.87
608.799	45.22
608.991	45.11
609.183	44.8
609.375	44.56
609.567	44.4
609.759	44.19
609.952	43.88
610.144	43.99
610.336	43.81
610.528	43.61
610.72	43.37
610.912	42.96
611.104	42.64
611.296	42.73
611.488	42.78
611.68	42.95
611.872	42.95
612.064	43
612.256	42.66
612.448	42.71
612.64	42.9
612.832	42.92
613.023	43.01
613.215	43.04
613.407	43.15
613.599	43.37
613.791	43.41
613.983	43.55
614.174	43.86
614.366	44.01
614.558	43.67
614.75	43.6
614.941	43.99
615.133	44.19
615.325	44.65
615.516	44.73
615.708	44.69
615.9	44.43
616.091	44.29
616.283	43.91
616.475	44.27
616.666	44.46
616.858	44.24
617.049	44.15
617.241	44
617.432	43.81
617.624	43.83
617.815	43.66
618.007	43.8
618.198	44.02
618.39	44.19
618.581	43.7
618.773	43.86
618.964	44.19
619.155	44.02
619.347	44.15
619.538	44.09
619.729	43.74
619.921	43.5
620.112	43.34
620.303	43.16
620.494	43.15
620.686	43.3
620.877	43.3
621.068	43.44
621.259	43.81
621.451	43.72
621.642	43.7
621.833	43.86
622.024	44.25
622.215	44.07
622.406	44.32
622.597	44.4
622.788	44.85
622.98	44.92
623.171	45.05
623.362	45.01
623.553	44.76
623.744	44.74
623.935	44.77
624.126	44.7
624.317	45.11
624.508	44.78
624.698	44.73
624.889	44.47
625.08	44.28
625.271	44.02
625.462	43.92
625.653	44.12
625.844	43.93
626.034	43.81
626.225	43.81
626.416	43.87
626.607	43.95
626.798	43.9
626.988	43.87
627.179	43.93
627.37	43.95
627.56	43.98
627.751	43.91
627.942	44.38
628.132	44.35
628.323	44.13
628.514	43.97
628.704	43.84
628.895	43.79
629.085	43.98
629.276	44.11
629.466	44.14
629.657	43.75
629.847	44
630.038	43.94
630.228	44.05
630.419	44.44
630.609	44.51
630.8	45.04
630.99	45.25
631.181	45.12
631.371	44.85
631.561	44.92
631.752	45.52
631.942	45.18
632.132	44.89
632.323	44.95
632.513	44.75
632.703	44.77
632.893	44.47
633.084	44.2
633.274	44.2
633.464	44.45
633.654	44.28
633.844	43.94
634.034	43.99
634.225	43.96
634.415	43.99
634.605	43.88
634.795	43.66
634.985	43.72
635.175	43.77
635.365	43.73
635.555	43.81
635.745	43.98
635.935	44
636.125	44.19
636.315	44.05
636.505	44.1
636.695	44.42
636.885	44.75
637.075	44.97
637.265	45.38
637.455	44.84
637.644	44.74
637.834	44.87
638.024	44.89
638.214	44.86
638.404	45.12
638.593	44.92
638.783	44.79
638.973	45.07
639.163	44.8
639.352	44.38
639.542	44.71
639.732	44.67
639.921	44.47
640.111	44.57
640.301	44.88
640.49	44.96
640.68	45.14
640.87	45.08
641.059	44.83
641.249	44.78
641.438	44.75
641.628	44.93
641.817	44.74
642.007	44.82
642.196	44.89
642.386	44.44
642.575	44.3
642.764	44.39
642.954	44.64
643.143	43.87
643.333	44.14
643.522	44.31
643.711	44.41
643.901	44.6
644.09	44.68
644.279	44.28
644.469	44.42
644.658	44.48
644.847	44.5
645.036	43.93
645.226	44.52
645.415	44.35
645.604	44.66
645.793	44.52
645.982	44.17
646.171	44.06
646.361	44.32
646.55	44.4
646.739	44.32
646.928	44.13
647.117	44.56
647.306	44.43
647.495	44.1
647.684	43.82
647.873	43.89
648.062	44.13
648.251	43.89
648.44	43.7
648.629	43.89
648.818	43.96
649.007	43.92
649.196	43.77
649.384	43.95
649.573	44.24
649.762	44.33
649.951	44.19
650.14	44.66
650.328	45.05
650.517	45.24
650.706	44.98
650.895	44.72
651.083	44.21
651.272	44.33
651.461	44.45
651.65	44.52
651.838	44.92
652.027	44.98
652.216	44.84
652.404	44.82
652.593	44.82
652.781	45.3
652.97	45.87
653.158	46.29
653.347	45.93
653.535	46.01
653.724	46.28
653.912	45.5
654.101	45.48
654.289	45.01
654.478	44.76
654.666	44.82
654.855	44.47
655.043	43.64
655.231	43.84
655.42	44.28
655.608	44.11
655.796	43.82
655.985	43.83
656.173	43.97
656.361	44.35
656.55	44.32
656.738	44.36
656.926	43.95
657.114	44.58
657.302	44.8
657.491	44.42
657.679	44.83
657.867	44.91
658.055	45.15
658.243	45.18
658.431	45.02
658.619	45.09
658.807	44.85
658.996	44.79
659.184	44.48
659.372	44.21
659.56	44.24
659.748	44.03
659.936	43.71
660.124	43.3
660.311	43.45
660.499	43.26
660.687	43.1
660.875	43.16
661.063	42.96
661.251	43.07
661.439	43.38
661.627	43.59
661.814	43.23
662.002	43.54
662.19	44.38
662.378	44.22
662.565	44.44
662.753	44.7
662.941	44.82
663.129	45.79
663.316	45.83
663.504	45.64
663.692	45.52
663.879	45.77
664.067	45.81
664.254	45.51
664.442	45.55
664.63	45.68
664.817	45.65
665.005	45.45
665.192	45.03
665.38	45.09
665.567	44.9
665.755	44.88
665.942	44.8
666.13	45.12
666.317	44.83
666.504	44.62
666.692	44.19
666.879	43.98
667.067	43.91
667.254	43.77
667.441	43.76
667.629	43.47
667.816	43.48
668.003	43.59
668.19	43.44
668.378	43.52
668.565	43.25
668.752	43.61
668.939	43.92
669.127	43.5
669.314	43.57
669.501	43.48
669.688	43.81
669.875	43.65
670.062	43.39
670.249	43.32
670.436	43.77
670.623	43.79
670.81	43.43
670.997	43.33
671.184	43.75
671.371	43.68
671.558	43.75
671.745	43.63
671.932	44.59
672.119	44.81
672.306	44.55
672.493	43.68
672.68	44.24
672.867	44.79
673.054	44.81
673.24	44.87
673.427	45.23
673.614	45.3
673.801	45.63
673.988	45.19
674.174	45.1
674.361	45.39
674.548	46.18
674.734	45.85
674.921	45.48
675.108	45.31
675.294	45.69
675.481	45.5
675.668	45.17
675.854	45.04
676.041	45.05
676.227	44.92
676.414	44.64
676.601	44
676.787	43.68
676.974	44.02
677.16	44.37
677.347	44.2
677.533	44.73
677.719	45.3
677.906	45.41
678.092	45.59
678.279	46.1
678.465	46.13
678.651	46.48
678.838	46.94
679.024	46.64
679.21	46.71
679.397	46.9
679.583	46.46
679.769	46.71
679.955	46.58
680.142	46.33
680.328	46.22
680.514	46.12
680.7	45.82
680.886	45.7
681.073	45.55
681.259	45.17
681.445	44.76
681.631	44.49
681.817	43.94
682.003	43.56
682.189	43.41
682.375	43.02
682.561	43.3
682.747	43.64
682.933	43.46
683.119	43.26
683.305	43.17
683.491	43.4
683.677	43.32
683.863	43.07
684.049	43.71
684.235	43.26
684.42	42.95
684.606	42.87
684.792	42.78
684.978	42.61
685.164	43.75
685.349	44.11
685.535	44.15
685.721	44.51
685.907	44.92
686.092	44.43
686.278	45.15
686.464	45.51
686.649	45.18
686.835	45.42
687.021	45.58
687.206	45.31
687.392	45.07
687.577	45.08
687.763	45
687.948	44.74
688.134	44.51
688.319	44.29
688.505	44.03
688.69	44.32
688.876	43.91
689.061	44.13
689.247	43.47
689.432	43.8
689.618	43.59
689.803	43.53
689.988	43.6
690.174	43.94
690.359	43.89
690.544	44.51
690.73	44.37
690.915	44.88
691.1	45.05
691.285	45.51
691.471	45.22
691.656	45.12
691.841	45.05
692.026	45.16
692.211	45.78
692.396	45.34
692.582	45.39
692.767	45.56
692.952	45.25
693.137	45.05
693.322	44.32
693.507	43.91
693.692	43.77
693.877	43.83
694.062	43.79
694.247	43.54
694.432	44.01
694.617	43.7
694.802	43.42
694.987	42.79
695.172	42.87
695.357	43.44
695.541	43.48
695.726	43.39
695.911	43.23
696.096	42.86
696.281	43.19
696.466	43.05
696.65	42.93
696.835	42.99
697.02	43.73
697.204	43.34
697.389	43.31
697.574	43.62
697.759	43.83
697.943	43.81
698.128	44.23
698.312	44.02
698.497	44.29
698.682	43.86
698.866	43.71
699.051	43.67
699.235	44.05
699.42	44.19
699.604	44.05
699.789	44.35
699.973	44.46
700.158	44.52
700.342	44.09
700.527	44.06
700.711	44.77
700.895	45.06
701.08	45.29
701.264	45.51
701.448	45.67
701.633	46.22
701.817	46.08
702.001	46.04
702.186	46.02
702.37	46.48
702.554	46.44
702.738	46.63
702.923	46.61
703.107	46.04
703.291	45.81
703.475	45.76
703.659	45.42
703.843	45.24
704.027	45.46
704.212	45.56
704.396	45.51
704.58	44.97
704.764	44.87
704.948	44.79
705.132	44.98
705.316	44.41
705.5	44.24
705.684	43.08
705.868	42.62
706.052	42.55
706.235	42.19
706.419	42.05
706.603	41.92
706.787	42.09
706.971	42.28
707.155	42.53
707.339	43.33
707.522	43.3
707.706	44.31
707.89	44.47
708.074	44.61
708.257	44.66
708.441	45.54
708.625	45.95
708.808	45.27
708.992	45.34
709.176	44.94
709.359	44.85
709.543	44.58
709.727	44.51
709.91	44.28
710.094	43.58
710.277	43.58
710.461	42.8
710.644	42.77
710.828	43.07
711.011	43.06
711.195	42.72
711.378	42.65
711.562	42.45
711.745	42.15
711.928	42.69
712.112	43.46
712.295	43.01
712.478	43.03
712.662	43.21
712.845	43.51
713.028	43.85
713.212	44.17
713.395	43.91
713.578	44.01
713.761	44.49
713.945	43.95
714.128	44.13
714.311	44.47
714.494	44.47
714.677	44.38
714.86	44.66
715.043	44.36
715.227	44.02
715.41	43.77
715.593	43.76
715.776	43.81
715.959	44.1
716.142	43.53
716.325	43.61
716.508	43.73
716.691	43.11
716.874	42.05
717.057	42.05
717.239	42.86
717.422	43.68
717.605	43.87
717.788	44.28
717.971	44.23
718.154	44.78
718.337	45.22
718.519	44.91
718.702	45.07
718.885	45.9
719.068	45.53
719.25	44.71
719.433	44.34
719.616	45.03
719.798	45.08
719.981	45.31
720.164	44.26
720.346	43.57
720.529	43.7
720.712	44.62
720.894	44.08
721.077	43.61
721.259	43.84
721.442	43.68
721.624	43.11
721.807	41.26
721.989	40.74
722.172	40.62
722.354	41.16
722.537	40.91
722.719	40.46
722.901	40.76
723.084	41.22
723.266	41.28
723.448	41.45
723.631	41.92
723.813	41.92
723.995	43.2
724.178	44.36
724.36	44.84
724.542	44.79
724.724	45.96
724.907	45.67
725.089	45.14
725.271	45.3
725.453	44.14
725.635	42.77
725.817	43.91
725.999	43.04
726.181	42.14
726.364	40.98
726.546	41.3
726.728	40.53
726.91	41.42
727.092	41.7
727.274	42.08
727.456	41.66
727.638	41.82
727.819	41.82
728.001	42.26
728.183	43.15
728.365	43.95
728.547	44.17
728.729	44.04
728.911	42.85
729.093	44.21
729.274	43.83
729.456	45.32
729.638	46.43
729.82	46.62
730.001	45.86
730.183	44.53
730.365	43.74
730.546	43.89
730.728	43.55
730.91	43.69
731.091	42.63
731.273	42.59
731.455	41
731.636	40.24
731.818	40.02
731.999	39.94
732.181	41.46
732.362	41.76
732.544	41.57
732.725	41.72
732.907	41.84
733.088	41.71
733.27	42.69
733.451	43.85
733.633	44.58
733.814	44.06
733.995	45.39
734.177	44.77
734.358	43.85
734.539	42.72
734.721	42.94
734.902	43.36
735.083	44
735.264	42.12
735.446	42.32
735.627	41.48
735.808	41.06
735.989	39.96
736.17	38.8
736.351	39.23
736.533	40.06
736.714	38.67
736.895	38.75
737.076	38.35
737.257	39.75
737.438	38.88
737.619	39.31
737.8	40.05
737.981	40.94
738.162	42.57
738.343	42.68
738.524	42.95
738.705	43.67
738.886	43.89
739.067	43.76
739.247	42.87
739.428	43.52
739.609	44.46
739.79	44.7
739.971	44.65
740.151	43.68
740.332	43.24
740.513	42.99
740.694	43.64
740.874	43.71
741.055	43.55
741.236	43.41
741.417	43.42
741.597	42.48
741.778	43.11
741.958	42.08
742.139	42.22
742.32	44.15
742.5	44.99
742.681	44.39
742.861	42.92
743.042	43.22
743.222	45.1
743.403	45.14
743.583	44.98
743.764	44.27
743.944	44.37
744.124	44.98
744.305	44.56
744.485	43.1
744.666	43.61
744.846	44.18
745.026	44.05
745.207	42.21
745.387	41.31
745.567	42.13
745.747	41.99
745.928	42.94
746.108	43.23
746.288	42.24
746.468	43.35
746.648	42.64
746.829	43.25
747.009	44.79
747.189	45.79
747.369	47.43
747.549	46.32
747.729	46.82
747.909	46.31
748.089	45.53
748.269	45.53
748.449	44.65
748.629	45.38
748.809	45.13
748.989	43.16
749.169	42.26
749.349	40.73
749.529	40.12
749.709	40.72
749.889	40.79
750.068	41.81
750.248	42
750.428	42.11
750.608	41.18
750.788	42.14
750.967	42.11
751.147	41.65
751.327	42.63
751.507	43.29
751.686	42.16
751.866	42.1
752.046	40.96
752.225	42.28
752.405	42.91
752.585	43.32
752.764	42.27
752.944	42.5
753.123	44.32
753.303	44.11
753.482	43.67
753.662	43.11
753.841	43.92
754.021	44.88
754.2	44.14
754.38	44.88
754.559	45.45
754.739	45.74
754.918	45.84
755.097	44.26
755.277	44.24
755.456	45.1
755.635	44.55
755.815	44.54
755.994	44.18
756.173	43.76
756.352	42.51
756.532	41.97
756.711	43
756.89	43.53
757.069	43.87
757.248	43
757.427	43.36
757.607	44.94
757.786	43.95
757.965	43.21
758.144	43.66
758.323	44.06
758.502	44.23
758.681	43.25
758.86	42.47
759.039	41.64
759.218	41.93
759.397	40.85
759.576	41.15
759.755	40.39
759.934	40.89
760.113	41.94
760.291	41.12
760.47	40.79
760.649	41.21
760.828	41.94
761.007	43.15
761.186	44.06
761.364	44.45
761.543	43.88
761.722	44.19
761.901	44.68
762.079	42.68
762.258	42.79
762.437	44.05
762.615	44.46
762.794	44.32
762.972	44.14
763.151	43.58
763.33	43.6
763.508	43.25
763.687	43.66
763.865	43.64
764.044	44.48
764.222	44.21
764.401	43.51
764.579	43.01
764.758	43.71
764.936	43.98
765.114	45.39
765.293	45.61
765.471	46.06
765.65	45.8
765.828	44.97
766.006	43.97
766.184	44.08
766.363	43.81
766.541	42.52
766.719	41.45
766.898	41.54
767.076	40.89
767.254	41.22
767.432	41.59
767.61	41.56
767.788	41.68
767.967	42.99
768.145	43.44
768.323	43.82
768.501	46.51
768.679	46.12
768.857	44.95
769.035	44.02
769.213	43.84
769.391	43.93
769.569	43.4
769.747	43.34
769.925	42.02
770.103	41.86
770.281	42
770.459	40.36
770.636	40.18
770.814	40.56
770.992	40.98
771.17	39.91
771.348	40.49
771.525	40.55
771.703	43.59
771.881	44.28
772.059	46.19
772.236	45.42
772.414	47.45
772.592	47.79
772.769	47.89
772.947	46.78
773.125	46.19
773.302	43.17
773.48	44.1
773.657	41.51
773.835	41.13
774.013	38.91
774.19	39.47
774.368	36.46
774.545	37.15
774.723	35.69
774.9	36.23
775.077	40.03
775.255	43.71
775.432	44.56
775.61	43.64
775.787	43.58
775.964	44.6
776.142	42.57
776.319	44.78
776.496	43.88
776.674	45.51
776.851	45.28
777.028	43.77
777.205	42.14
777.382	41
777.56	42.62
777.737	44.57
777.914	45.64
778.091	47.91
778.268	45.93
778.445	45.55
778.622	44.06
778.8	43.57
778.977	42.96
779.154	44.31
779.331	44.48
779.508	43.34
779.685	41.63
779.862	41.13
780.038	40.93
780.215	42.95
780.392	41.1
780.569	40.93
780.746	42.96
780.923	41.7
781.1	38.05
781.277	37.92
781.453	38.31
781.63	38.07
781.807	36.16
781.984	34.26
782.16	31.62
782.337	33.9
782.514	35.78
782.691	33.8
782.867	36.23
783.044	38.74
783.221	38.77
783.397	40.86
783.574	41.19
783.75	43.66
783.927	44.91
784.103	44.06
784.28	47.04
784.456	46.53
784.633	49.95
784.809	46.77
784.986	48.37
785.162	46.94
785.339	44.86
785.515	45.34
785.692	41.57
785.868	40.75
786.044	42.93
786.221	37
786.397	37.84
786.573	35.1
786.749	35.61
786.926	32.74
787.102	34.7
787.278	34.53
787.454	34.26
787.631	36.16
787.807	39.14
787.983	38.98
788.159	41.93
788.335	41.4
788.511	42.57
788.687	43.16
788.863	43.15
789.039	43.45
789.216	42.32
789.392	41.28
789.568	41.66
789.744	40.59
789.919	40.19
790.095	39.97
790.271	38.13
790.447	35.83
790.623	35.14
790.799	35.77
790.975	35.65
791.151	35.59
791.327	39.45
791.502	40.11
791.678	39.79
791.854	41.81
792.03	40.44
792.205	42.06
792.381	41.88
792.557	46.61
792.733	50.11
792.908	49.33
793.084	51
793.259	49.03
793.435	48.14
793.611	47.47
793.786	43.2
793.962	42.49
794.137	43.51
794.313	44.44
794.488	40.1
794.664	38.91
794.839	39.17
795.015	36.31
795.19	34.21
795.366	34.35
795.541	34.76
795.716	36.49
795.892	38.03
796.067	35.03
796.242	36.79
796.418	36.88
796.593	36.3
796.768	37.35
796.944	39.85
797.119	41.54
797.294	40
797.469	39.87
797.644	40.12
797.82	40.33
797.995	41.99
798.17	42.19
798.345	42.05
798.52	41.84
798.695	40.06
798.87	40.32
799.045	40.17
799.22	40.91
799.395	41.63
799.57	43.61
799.745	40.74
799.92	40.04
800.095	37.44
800.27	41.65
800.445	42.49
800.62	43.73
800.795	44.09
800.97	46.23
801.145	46.59
801.319	47.73
801.494	44.92
801.669	49.96
801.844	49.99
802.018	52.8
802.193	48.31
802.368	48.9
802.543	49.37
802.717	48.51
802.892	46.02
803.067	44.65
803.241	39.52
803.416	40.82
803.59	39.79
803.765	40.41
803.94	42.28
804.114	49.71
804.289	48.89
804.463	47.57
804.638	45.46
804.812	45.65
804.986	46.97
805.161	46.91
805.335	48.1
805.51	47.04
805.684	49.66
805.858	45.87
806.033	40.93
806.207	39.5
806.381	38.13
806.556	39.38
806.73	33.51
806.904	34.96
807.078	38.03
807.253	38.92
807.427	40.99
807.601	39.95
807.775	36.82
807.949	35.87
808.123	37.83
808.298	39.97
808.472	40.8
808.646	45.9
808.82	46.82
808.994	45.32
809.168	41.82
809.342	38.67
809.516	39.46
809.69	41.76
809.864	41.69
810.038	40.08
810.212	37.83
810.385	37.97
810.559	39.73
810.733	36.87
810.907	37.36
811.081	36.36
811.255	33.81
811.428	32.35
811.602	35.54
811.776	30.97
811.95	33.1
812.123	33.11
812.297	30.68
812.471	26.66
812.644	24.51
812.818	24.2
812.992	25.04
813.165	29.42
813.339	28.87
813.512	27
813.686	31.87
813.86	29.2
814.033	30.95
814.207	32.61
814.38	35.39
814.554	39.54
814.727	39.03
814.9	40.95
815.074	40.45
815.247	43.03
815.421	42.4
815.594	44.25
815.767	44.66
815.941	41.56
816.114	43.21
816.287	39.65
816.46	38.75
816.634	36.65
816.807	36.57
816.98	32.06
817.153	30.82
817.327	29.12
817.5	29.34
817.673	32.04
817.846	31.6
818.019	31.91
818.192	36.43
818.365	34
818.538	37.69
818.711	37.03
818.884	40.06
819.057	34.94
819.23	37.44
819.403	36.87
819.576	37.43
819.749	41.73
819.922	39.22
820.095	35.05
820.268	37.04
820.441	35.11
820.614	35.31
820.786	38.08
820.959	40.15
821.132	40.21
821.305	40.39
821.477	39.64
821.65	37.61
821.823	38.6
821.996	39.97
822.168	41.23
822.341	41.06
822.514	41.55
822.686	41.6
822.859	41.43
823.031	41.43
823.204	40.77
823.376	40.28
823.549	41.56
823.722	41.38
823.894	41.66
824.067	40.37
824.239	41.01
824.411	40.25
824.584	39.26
824.756	39.15
824.929	38.96
825.101	39.74
825.273	40.28
825.446	39.77
825.618	40.31
825.79	38.16
825.963	39.03
826.135	38.3
826.307	39.02
826.479	37.61
826.652	38.85
826.824	37.98
826.996	37.81
827.168	38.13
827.34	37.15
827.512	36.92
827.684	37.75
827.856	36.67
828.029	36.69
828.201	35.12
828.373	36.13
828.545	33.99
828.717	34.77
828.889	33.53
829.061	33.32
829.232	33.36
829.404	32.59
829.576	32.94
829.748	32.37
829.92	34.89
830.092	37.46
830.264	38.46
830.436	38.79
830.607	41.44
830.779	41.88
830.951	44.91
831.123	44.82
831.294	46.63
831.466	45.31
831.638	46.45
831.809	41.02
831.981	39.27
832.153	39.86
832.324	41.16
832.496	37.95
832.667	40.07
832.839	35.86
833.011	38.66
833.182	36.43
833.354	40.03
833.525	42.11
833.697	45.47
833.868	45.44
834.039	44.97
834.211	47.26
834.382	47.19
834.554	49.33
834.725	49.64
834.896	46.04
835.068	47.09
835.239	45.12
835.41	44.84
835.581	43.55
835.753	42.96
835.924	42.61
836.095	41.37
836.266	39.48
836.438	36.76
836.609	35.6
836.78	38.46
836.951	38.78
837.122	39.43
837.293	37.11
837.464	39.23
837.635	36.87
837.806	38.59
837.977	37.52
838.148	37.48
838.319	37.07
838.49	39.51
838.661	39.56
838.832	35.55
839.003	40.65
839.174	38.72
839.345	33.79
839.516	50.11
839.687	48.32
839.857	46.08
840.028	52.5
840.199	47.45
840.37	40.42
840.54	41.06
840.711	41.93
840.882	34.8
841.053	37.08
841.223	38.05
841.394	33.12
841.564	29.96
841.735	28.14
841.906	24.7
842.076	26.28
842.247	34.49
842.417	35.79
842.588	38.08
842.758	39.44
842.929	43.34
843.099	44.07
843.27	35.73
843.44	41.85
843.611	53.6
843.781	46.53
843.951	49.49
844.122	48.46
844.292	53.36
844.462	45.37
844.633	43.63
844.803	39.73
844.973	46.5
845.144	53.02
845.314	52.79
845.484	44.72
845.654	55.02
845.824	49.04
845.995	51.15
846.165	50.94
846.335	58.31
846.505	74.52
846.675	80.11
846.845	71.88
847.015	76.02
847.185	71.83
847.355	70.18
847.525	60.14
847.695	62.77
847.865	50.32
848.035	51.91
848.205	54.48
848.375	48.96
848.545	43.34
848.715	44.52
848.884	43.15
849.054	46.73
849.224	37.68
849.394	50.83
849.564	49.84
849.733	67.42
849.903	64.25
850.073	63.87
850.243	61.51
850.412	72.47
850.582	64.16
850.752	41.72
850.921	37.26
851.091	37.8
851.26	25.77
851.43	20.55
851.599	10.87
851.769	-10.32
851.939	-11.63
852.108	3.08
852.278	7.46
852.447	9.43
852.616	15.74
852.786	15.07
852.955	30.3
853.125	46.4
853.294	42.98
853.463	35.97
853.633	39.7
853.802	35.74
853.971	33.26
854.141	24.37
854.31	26.47
854.479	35.75
854.648	32.86
854.818	23.97
854.987	17.27
855.156	28.54
855.325	31.47
855.494	30.34
855.663	18.68
855.832	15.32
856.001	13.27
856.171	2.8
856.34	-3.3
856.509	-9.05
856.678	0.66
856.847	-14.19
857.016	-13.35
857.185	8.55
857.353	4.09
857.522	74.88
857.691	207.64
857.86	623.74
858.029	351.28
858.198	222.19
858.367	123.77
858.535	102.95
858.704	105.5
858.873	64.26
859.042	26.91
859.21	37.12
859.379	43.51
859.548	50.72
859.717	48
859.885	43.38
860.054	40.06
860.222	41.95
860.391	51.98
860.56	69.11
860.728	68.21
860.897	65.76
861.065	54.4
861.234	58.47
861.402	56.31
861.571	43.33
861.739	44.57
861.908	43.86
862.076	54.54
862.244	43.01
862.413	38.02
862.581	35.36
862.749	35.56
862.918	38.6
863.086	30.78
863.254	32.08
863.423	42.66
863.591	44.82
863.759	44.03
863.927	42.15
864.096	47.99
864.264	47.8
864.432	52.79
864.6	53.86
864.768	61.77
864.936	73.57
865.104	67.62
865.272	52.79
865.44	34.05
865.608	22.27
865.776	32.19
865.944	43.05
866.112	25.35
866.28	34.68
866.448	45.63
866.616	35.21
866.784	40.39
866.952	35.59
867.12	36.59
867.288	54.99
867.455	57.79
867.623	63.77
867.791	58.1
867.959	70.02
868.127	53.15
868.294	31.33
868.462	20.01
868.63	5.48
868.797	52.37
868.965	49.4
869.133	26.1
869.3	21.97
869.468	3.4
869.636	11.16
869.803	20.88
869.971	25.52
870.138	30.83
870.306	51.33
870.473	53.98
870.641	21.67
870.808	23.74
870.975	33.21
871.143	42.81
871.31	56.29
871.478	52.43
871.645	39.6
871.812	38.96
871.98	49.96
872.147	69.13
872.314	39.15
872.482	30.31
872.649	28.9
872.816	45.49
872.983	48.62
873.15	43.26
873.318	22.01
873.485	38.43
873.652	32.45
873.819	33.11
873.986	13.79
874.153	28.09
874.32	48.31
874.487	53.68
874.654	39.85
874.821	44.13
874.988	44.15
875.155	63.92
875.322	55.49
875.489	48.9
875.656	45.01
875.823	43.49
875.99	52.21
876.157	51.61
876.324	52.23
876.49	51.56
876.657	57.89
876.824	65.15
876.991	66.58
877.157	47.91
877.324	63.19
877.491	67.51
877.658	72.71
877.824	57.09
877.991	53.4
878.157	48.57
878.324	57.95
878.491	51.45
878.657	49.28
878.824	49.14
878.99	65.35
879.157	56.58
879.323	52.3
879.49	54.64
879.656	61.54
879.823	57.03
879.989	53.05
880.156	46.37
880.322	45.58
880.488	43.67
880.655	29.68
880.821	30.27
880.987	20.87
881.154	16.35
881.32	13.46
881.486	16.65
881.652	14.22
881.819	19.25
881.985	23.49
882.151	20.52
882.317	25.06
882.483	28.77
882.649	30.82
882.816	27.86
882.982	34.48
883.148	32.81
883.314	32.36
883.48	35.15
883.646	33.88
883.812	34.48
883.978	35.76
884.144	33.62
884.31	33.86
884.476	34.77
884.642	36.86
884.807	37.3
884.973	39.18
885.139	39.91
885.305	40.06
885.471	41.95
885.637	40.17
885.802	42.54
885.968	42.95
886.134	43.12
886.3	39.89
886.465	46.07
886.631	33.44
886.797	33.73
886.962	28.43
887.128	25.92
887.293	15.55
887.459	25.14
887.625	10.5
887.79	9.82
887.956	-0.99
888.121	-5.29
888.287	-49.71
888.452	-23.83
888.618	-62.41
888.783	-81.34
