Data from 2938079_Reflection_3.txt Node
Date: Sat Jul 11 20:14:56 EDT 2015
User: robert
Spectrometer: USB4E03001
Autoset integration time: false
Trigger mode: 4
Integration Time (sec): 1.000000E-1
Scans to average: 10
Electric dark correction enabled: true
Nonlinearity correction enabled: false
Boxcar width: 5
Stray light correction enabled: false
XAxis mode: Wavelengths
Stop averaging: false
Number of Pixels in Spectrum: 3648
>>>>>Begin Spectral Data<<<<<
177.566	-218.1
177.785	-131.55
178.005	-166.4
178.225	-90.73
178.445	-38.56
178.665	1.26
178.885	106.35
179.105	-54.68
179.324	-867.88
179.544	-948.98
179.764	205.64
179.984	-1103.02
180.204	168.3
180.423	71.09
180.643	134.96
180.863	37.08
181.083	-228.34
181.302	-789.39
181.522	34.93
181.742	-34.86
181.961	-114.96
182.181	124.89
182.401	142.11
182.621	52.16
182.84	24.4
183.06	21.35
183.279	-148.87
183.499	163.66
183.719	135.31
183.938	126.69
184.158	161.23
184.377	110.42
184.597	108.98
184.816	124.63
185.036	128.06
185.256	119.62
185.475	121.93
185.695	153.79
185.914	177.56
186.134	260.09
186.353	243.29
186.572	249.03
186.792	306.81
187.011	-287.27
187.231	-216.85
187.45	-373.89
187.67	-177.17
187.889	-9.71
188.108	66.83
188.328	84.86
188.547	-473.75
188.766	633.95
188.986	110.28
189.205	-74.81
189.424	-222.12
189.644	-266.9
189.863	-295.13
190.082	252.66
190.302	484.03
190.521	-491.5
190.74	-231.31
190.959	-134.26
191.178	-138.61
191.398	-374.63
191.617	-314.12
191.836	95.13
192.055	76.66
192.274	-347.21
192.494	-83.32
192.713	-218.18
192.932	-832.67
193.151	-2121.63
193.37	-599.64
193.589	-344.55
193.808	-268.6
194.027	-193.95
194.246	-27.76
194.465	-81.02
194.685	-107.92
194.904	-210.64
195.123	-147.69
195.342	-167.59
195.561	-383.15
195.78	-1224.96
195.999	-451.12
196.218	264.89
196.436	165.26
196.655	171.88
196.874	282.47
197.093	147.26
197.312	134.03
197.531	118.12
197.75	87.89
197.969	141.43
198.188	127.4
198.407	132.34
198.625	1439.24
198.844	-289.99
199.063	-119.03
199.282	577.7
199.501	-89.33
199.719	-316.79
199.938	-4861.04
200.157	1064.89
200.376	434.05
200.594	358.87
200.813	344.68
201.032	310.84
201.251	215.85
201.469	187.58
201.688	217.25
201.907	148.25
202.125	137.72
202.344	119.16
202.563	100.62
202.781	87.32
203	107.49
203.218	138.78
203.437	89.24
203.656	126.66
203.874	36.94
204.093	63.2
204.311	-74.13
204.53	-81.06
204.748	-60.43
204.967	0.92
205.185	19.42
205.404	-13.53
205.622	30.95
205.841	-73.43
206.059	-1444.17
206.278	997.91
206.496	-2851.95
206.715	-212.54
206.933	-102.78
207.151	-161.59
207.37	988.02
207.588	338.49
207.806	314.11
208.025	5.75
208.243	99.13
208.461	49.89
208.68	60.32
208.898	-991.93
209.116	-63.49
209.335	-97.38
209.553	-78.23
209.771	-227.82
209.989	-33.12
210.208	-92.66
210.426	15.17
210.644	-36.52
210.862	53.48
211.081	72.36
211.299	77.51
211.517	212.81
211.735	124.11
211.953	199.03
212.171	281.12
212.39	3849.06
212.608	200.96
212.826	1292.86
213.044	309.96
213.262	-9.63
213.48	201.29
213.698	211.94
213.916	73.05
214.134	-53.15
214.352	199.33
214.57	-50.15
214.788	89.42
215.006	-21.86
215.224	249.19
215.442	157.17
215.66	1299.34
215.878	229.75
216.096	217.8
216.314	192.66
216.532	294.4
216.75	286.38
216.968	473.63
217.185	-17103.17
217.403	940.21
217.621	573.98
217.839	519.09
218.057	246.48
218.275	834.58
218.492	-655.95
218.71	-151.32
218.928	-43.01
219.146	-61.41
219.363	85.27
219.581	-119.12
219.799	407.32
220.017	-151.33
220.234	-1.76
220.452	159.27
220.67	865.86
220.887	-143.93
221.105	-69.81
221.323	-246.02
221.54	-122.69
221.758	-133.04
221.976	-180.87
222.193	-556.31
222.411	-190.07
222.629	-143.22
222.846	-153
223.064	-126.44
223.281	-98.88
223.499	-82.04
223.716	-31.99
223.934	-98.75
224.151	-101.2
224.369	-90.36
224.586	-64.19
224.804	-62.11
225.021	-57.71
225.239	-31.04
225.456	-23.41
225.674	-67.1
225.891	-40.25
226.108	-4.86
226.326	6.92
226.543	-0.38
226.76	5.43
226.978	8.65
227.195	-1.36
227.413	-9.96
227.63	-7.84
227.847	-3.34
228.064	1.62
228.282	-0.06
228.499	-8.53
228.716	-9.84
228.934	-6.24
229.151	-4.55
229.368	-4.07
229.585	-2.17
229.802	1.32
230.02	1.23
230.237	0.65
230.454	-1.77
230.671	-2.88
230.888	-2.61
231.105	-0.36
231.323	-1.15
231.54	-6.77
231.757	-11.95
231.974	-9.12
232.191	-13.03
232.408	-13.32
232.625	-15.81
232.842	-15.18
233.059	-12.39
233.276	-12.62
233.493	-13.04
233.71	-6.59
233.927	-6.33
234.144	-3.58
234.361	-10.33
234.578	-6.21
234.795	-7.6
235.012	-8.93
235.229	-2.63
235.446	-9.43
235.663	-10.92
235.879	-9.14
236.096	-11.17
236.313	-3.85
236.53	1.13
236.747	2.44
236.964	-9.03
237.181	-10.36
237.397	-6.91
237.614	-15.72
237.831	-10.38
238.048	-12.06
238.264	-13.17
238.481	-6.87
238.698	-4.66
238.915	-4.57
239.131	2.17
239.348	3.08
239.565	2.05
239.781	-0.21
239.998	-5.55
240.215	-4.37
240.431	0.06
240.648	-0.72
240.865	-3.25
241.081	-2.98
241.298	-0.99
241.514	-0.82
241.731	1.93
241.947	3.24
242.164	3.16
242.38	4.27
242.597	3.18
242.814	3.33
243.03	3.41
243.246	3.75
243.463	2.66
243.679	2
243.896	-0.97
244.112	-3.53
244.329	-4.98
244.545	-5.52
244.762	-5.16
244.978	-4.46
245.194	-8.31
245.411	-9.96
245.627	-10.07
245.843	-8.68
246.06	-7.88
246.276	-6.62
246.492	-3.31
246.709	-2.62
246.925	-2.01
247.141	-1.68
247.357	-1.39
247.574	0.52
247.79	1.19
248.006	2.1
248.222	2.08
248.439	1.57
248.655	2.67
248.871	1.17
249.087	3.02
249.303	4.52
249.519	4.82
249.736	4.11
249.952	2.61
250.168	4.16
250.384	3.46
250.6	3.13
250.816	1.21
251.032	-0.93
251.248	1.49
251.464	-1.08
251.68	-3.5
251.896	-3.45
252.112	-3.84
252.328	-0.61
252.544	-2.84
252.76	-3.4
252.976	-5.99
253.192	-2.13
253.408	-2.06
253.624	-3.03
253.84	-5.38
254.056	-5.96
254.272	-8.52
254.487	-8.87
254.703	-17.33
254.919	-14.35
255.135	-13.16
255.351	-15.13
255.567	-17.1
255.782	-15.61
255.998	-17.12
256.214	-14.42
256.43	-11.27
256.646	-6.39
256.861	-5.75
257.077	-3.19
257.293	-6.6
257.508	-7.48
257.724	-0.2
257.94	0.98
258.155	0.61
258.371	0.54
258.587	0.2
258.802	0.95
259.018	0.28
259.234	0.33
259.449	0.34
259.665	1.13
259.88	1.91
260.096	1.92
260.312	0.81
260.527	0.28
260.743	-0.01
260.958	0.15
261.174	-0.56
261.389	0.12
261.605	1.21
261.82	0.43
262.036	0.57
262.251	-0.83
262.466	-1.48
262.682	0.18
262.897	2.1
263.113	2
263.328	2.72
263.543	1.97
263.759	-0.02
263.974	1.44
264.189	3.48
264.405	0.82
264.62	0.9
264.835	-0.15
265.051	-2.17
265.266	-2.96
265.481	-3.43
265.696	-5.28
265.912	-3.54
266.127	-3.17
266.342	-5.11
266.557	-6.3
266.773	-4.63
266.988	-3.59
267.203	-4.95
267.418	-4.46
267.633	-5.27
267.848	-5.12
268.064	-3.31
268.279	-3.54
268.494	-2.4
268.709	-2.95
268.924	-2.17
269.139	-0.61
269.354	-0.22
269.569	1.26
269.784	1.14
269.999	0.39
270.214	1.21
270.429	1.82
270.644	1.75
270.859	-0.01
271.074	0.72
271.289	0.9
271.504	-0.27
271.719	-0.8
271.934	-1.17
272.149	-0.2
272.363	1.1
272.578	1.04
272.793	-0.33
273.008	1.16
273.223	2.7
273.438	2.31
273.653	2.04
273.867	1.64
274.082	1.9
274.297	2.47
274.512	1.3
274.726	-0.1
274.941	0.02
275.156	-1.28
275.371	-3.59
275.585	-6.16
275.8	-6.04
276.015	-6.07
276.229	-4.99
276.444	-5.07
276.659	-5.73
276.873	-4.94
277.088	-3.58
277.302	-2.96
277.517	-0.23
277.732	1.12
277.946	2.96
278.161	3.56
278.375	4.38
278.59	3.13
278.804	1.93
279.019	0.28
279.233	-0.47
279.448	-2.69
279.662	-2.62
279.877	-2.58
280.091	-2.9
280.306	-4.32
280.52	-4.33
280.735	-5.04
280.949	-3.43
281.163	-1.32
281.378	0.2
281.592	0.77
281.806	1.6
282.021	2.09
282.235	0.31
282.449	-1.54
282.664	-0.51
282.878	-1.1
283.092	-0.09
283.307	-2.54
283.521	-4.62
283.735	-5.72
283.949	-6.91
284.164	-5.68
284.378	-6.98
284.592	-3.46
284.806	-1.52
285.02	-1.67
285.234	-0.72
285.449	-1.31
285.663	-0.24
285.877	0.86
286.091	1.71
286.305	2.91
286.519	3.29
286.733	3.58
286.947	1.55
287.161	0.8
287.375	0.71
287.589	0.8
287.803	0.91
288.017	3.53
288.231	3.14
288.445	2.12
288.659	1
288.873	1.34
289.087	3.57
289.301	4.85
289.515	3.85
289.729	3.37
289.943	2.75
290.157	2.78
290.371	1.72
290.584	0.77
290.798	0.92
291.012	1.56
291.226	1.75
291.44	0.42
291.654	-0.63
291.867	0.83
292.081	1.7
292.295	1.7
292.509	1.26
292.722	-0.29
292.936	1.92
293.15	3.55
293.364	1.79
293.577	1.29
293.791	0.3
294.005	0.49
294.218	-2.24
294.432	-1.07
294.645	-2.27
294.859	-0.57
295.073	0.96
295.286	0.76
295.5	0.52
295.713	1.7
295.927	1.93
296.14	2.72
296.354	3.69
296.568	6.47
296.781	4.82
296.994	6.85
297.208	6.32
297.421	5.51
297.635	5.81
297.848	6
298.062	6.19
298.275	6.27
298.489	6.53
298.702	5.72
298.915	4.16
299.129	4.3
299.342	2.85
299.555	2.39
299.769	2.46
299.982	2.99
300.195	3.27
300.409	4.08
300.622	3.44
300.835	1.85
301.048	2.13
301.262	3.75
301.475	5.48
301.688	5.66
301.901	6.2
302.115	6.11
302.328	4.43
302.541	3.81
302.754	3.63
302.967	2.76
303.18	4.33
303.393	4.78
303.607	4.76
303.82	6.04
304.033	7.14
304.246	6.3
304.459	6.74
304.672	4.72
304.885	5.6
305.098	6.34
305.311	7.14
305.524	9.8
305.737	8.14
305.95	7.14
306.163	4.42
306.376	3.88
306.589	5.05
306.802	6.4
307.015	9.87
307.228	8.85
307.44	8.15
307.653	8.49
307.866	5.02
308.079	6.56
308.292	6.5
308.505	8.68
308.718	8.33
308.93	7.69
309.143	7.98
309.356	7.38
309.569	8.87
309.781	8.87
309.994	9.12
310.207	10.34
310.42	10.66
310.632	11
310.845	10.79
311.058	11.2
311.27	11.92
311.483	10.66
311.696	10.08
311.908	9.83
312.121	9.9
312.333	9.4
312.546	8.75
312.759	8
312.971	7.78
313.184	8.16
313.396	7.24
313.609	7.08
313.821	7.46
314.034	6.69
314.246	6.08
314.459	7.17
314.671	9.41
314.884	8.6
315.096	10.53
315.309	9.73
315.521	7.24
315.733	6.71
315.946	7.44
316.158	8.18
316.371	8.64
316.583	8.38
316.795	6.61
317.008	6.43
317.22	7.21
317.432	5.71
317.644	8.48
317.857	8.48
318.069	10.86
318.281	9.17
318.494	7.73
318.706	9.97
318.918	10.14
319.13	10.29
319.342	9.45
319.555	10.05
319.767	10.79
319.979	8.04
320.191	8.19
320.403	5.03
320.615	5.74
320.827	7.73
321.039	6.33
321.252	7.11
321.464	7.02
321.676	5.25
321.888	7.22
322.1	5.85
322.312	7.7
322.524	9.58
322.736	12.78
322.948	12.84
323.16	12.5
323.372	14.21
323.584	13.31
323.796	11.09
324.007	11.98
324.219	10.98
324.431	11.46
324.643	11.53
324.855	12.5
325.067	11.08
325.279	10.49
325.491	11.49
325.702	10.01
325.914	11.65
326.126	14.8
326.338	16.26
326.55	15.73
326.761	17.03
326.973	17.62
327.185	17.34
327.396	19.78
327.608	20.82
327.82	20.95
328.032	21.84
328.243	22.83
328.455	21.51
328.666	21.48
328.878	22.19
329.09	21.7
329.301	21.66
329.513	22.38
329.725	22.14
329.936	22.63
330.148	22.33
330.359	22.54
330.571	22.28
330.782	23.99
330.994	24.99
331.205	24.76
331.417	26.45
331.628	26.8
331.84	24.75
332.051	23.39
332.262	24.33
332.474	24.89
332.685	25.98
332.897	25.81
333.108	27.13
333.319	27.09
333.531	27.84
333.742	28.15
333.953	28.62
334.165	30.6
334.376	31.66
334.587	31.74
334.799	32.02
335.01	31.66
335.221	30.87
335.432	31.5
335.644	31.74
335.855	30.96
336.066	30.85
336.277	30.02
336.488	29.54
336.7	29.02
336.911	28.57
337.122	29.08
337.333	28.48
337.544	29.6
337.755	28.28
337.966	28.45
338.177	30.17
338.388	29.86
338.599	30.1
338.811	30.6
339.022	31.52
339.233	32.44
339.444	32.24
339.655	33.73
339.866	34.25
340.076	34.64
340.287	34.74
340.498	35.13
340.709	35.93
340.92	36.92
341.131	37.07
341.342	36.81
341.553	37.15
341.764	35.27
341.975	35.9
342.185	35.51
342.396	35.65
342.607	34.84
342.818	35.49
343.029	34.15
343.239	34.69
343.45	35.06
343.661	35.68
343.872	34.82
344.082	36.34
344.293	35.41
344.504	34.28
344.714	35
344.925	35.68
345.136	34.44
345.346	34.31
345.557	33.77
345.768	33.37
345.978	32.39
346.189	31.39
346.399	30.75
346.61	30.68
346.821	30.3
347.031	29.07
347.242	28.61
347.452	29.41
347.663	29.92
347.873	30.53
348.084	31.31
348.294	33.17
348.504	34.47
348.715	35.75
348.925	36.02
349.136	36.9
349.346	36.92
349.557	35.83
349.767	35.83
349.977	35.81
350.188	35.06
350.398	33.08
350.608	31.53
350.819	32.72
351.029	31.93
351.239	32.7
351.449	32.86
351.66	33.82
351.87	35.21
352.08	34.97
352.29	34.65
352.501	34.37
352.711	35.07
352.921	35
353.131	33.69
353.341	33.42
353.552	33.04
353.762	33.26
353.972	33.41
354.182	33.8
354.392	32.64
354.602	33.81
354.812	33.67
355.022	34.04
355.232	34.02
355.442	34.37
355.652	35.16
355.862	35.19
356.072	34.35
356.282	33.28
356.492	32.58
356.702	33.24
356.912	33.81
357.122	34.03
357.332	34.81
357.542	35.68
357.752	36.34
357.962	35.54
358.171	35.03
358.381	35.52
358.591	36.43
358.801	36.68
359.011	37.28
359.221	36.67
359.43	37.24
359.64	37.18
359.85	36.88
360.06	36.3
360.269	36.88
360.479	37.97
360.689	38.17
360.899	37.57
361.108	37.88
361.318	37.26
361.528	36.85
361.737	36.68
361.947	35.81
362.156	35.45
362.366	35.15
362.576	35.28
362.785	34.97
362.995	35.05
363.204	36.03
363.414	36.16
363.623	35.85
363.833	36.06
364.042	35.56
364.252	36.08
364.461	36.17
364.671	36.16
364.88	35.89
365.09	35.28
365.299	35.36
365.509	34.63
365.718	34.13
365.927	35
366.137	34.72
366.346	35.08
366.555	35.28
366.765	35.25
366.974	35.77
367.183	36.38
367.393	35.73
367.602	35.42
367.811	35.36
368.021	35.09
368.23	34.96
368.439	34.63
368.648	34.73
368.857	34.6
369.067	34.82
369.276	34.59
369.485	33.67
369.694	33.97
369.903	33.35
370.112	32.42
370.321	32.79
370.531	32.82
370.74	32.86
370.949	32.04
371.158	31.85
371.367	31.35
371.576	31.94
371.785	31.92
371.994	31.6
372.203	32.11
372.412	32.51
372.621	32.52
372.83	32.05
373.039	32.71
373.248	33.27
373.457	33.66
373.666	33.74
373.874	32.5
374.083	32.75
374.292	33.29
374.501	33.35
374.71	33.34
374.919	32.29
375.128	32.44
375.336	32.39
375.545	32.64
375.754	31.96
375.963	32.09
376.171	32.46
376.38	32.24
376.589	32.44
376.798	32.84
377.006	33.31
377.215	33.76
377.424	34.07
377.632	33.87
377.841	33.18
378.05	33.71
378.258	33.63
378.467	33.14
378.675	33.11
378.884	32.81
379.093	32.05
379.301	31.71
379.51	31.28
379.718	30.76
379.927	30.46
380.135	30.5
380.344	29.67
380.552	30.02
380.761	30.52
380.969	30.45
381.177	30.25
381.386	29.4
381.594	29.09
381.803	29.6
382.011	29.37
382.219	28.87
382.428	29.04
382.636	29.7
382.845	29.25
383.053	29.1
383.261	28.57
383.469	28.49
383.678	29.51
383.886	29.64
384.094	29.45
384.302	30.19
384.511	30.58
384.719	30.89
384.927	30.4
385.135	30.61
385.343	30.2
385.552	30.45
385.76	30.03
385.968	29.31
386.176	29.25
386.384	29.04
386.592	28.37
386.8	28.39
387.008	27.78
387.216	27.91
387.424	27.53
387.633	27.67
387.841	27.46
388.049	27.2
388.257	27.18
388.465	27.32
388.672	27.05
388.88	26.97
389.088	27.22
389.296	27.12
389.504	26.85
389.712	27.34
389.92	27.45
390.128	27.53
390.336	27.8
390.544	27.78
390.751	27.8
390.959	27.87
391.167	28.28
391.375	27.8
391.583	27.64
391.79	27.64
391.998	26.88
392.206	26.45
392.414	26.6
392.621	27.15
392.829	27.22
393.037	27.06
393.244	27.15
393.452	26.82
393.66	26.84
393.867	27.12
394.075	27.08
394.283	27.68
394.49	28.23
394.698	28.38
394.905	28.38
395.113	28.35
395.32	28.31
395.528	28.89
395.735	28.7
395.943	28.91
396.15	29
396.358	29.12
396.565	29.03
396.773	29.13
396.98	28.89
397.188	28.55
397.395	28.64
397.602	28.97
397.81	28.13
398.017	28.32
398.225	28.34
398.432	28.64
398.639	28.67
398.847	28.55
399.054	28.29
399.261	28.81
399.468	29.01
399.676	29.29
399.883	28.77
400.09	28.78
400.297	28.29
400.505	28.38
400.712	28.22
400.919	28.11
401.126	28.12
401.333	27.89
401.54	27.72
401.748	27.76
401.955	27.63
402.162	28.03
402.369	28.45
402.576	28.87
402.783	29.31
402.99	29.19
403.197	29.12
403.404	29.33
403.611	29.58
403.818	29.29
404.025	28.99
404.232	28.95
404.439	29.18
404.646	29.2
404.853	29.3
405.06	28.91
405.267	29.06
405.474	29.38
405.681	29.4
405.887	29.4
406.094	29.43
406.301	29.92
406.508	30.01
406.715	29.65
406.922	29.58
407.128	29.66
407.335	29.85
407.542	29.71
407.749	29.58
407.955	29.39
408.162	29.72
408.369	29.69
408.575	29.42
408.782	29.44
408.989	29.46
409.195	29.59
409.402	29.36
409.609	29.32
409.815	29.27
410.022	29.31
410.228	29.25
410.435	29.03
410.642	29.35
410.848	29.44
411.055	29.5
411.261	29.34
411.468	29.27
411.674	29.57
411.881	29.75
412.087	29.65
412.294	29.93
412.5	29.62
412.706	29.51
412.913	29.33
413.119	29.26
413.326	29.28
413.532	29.64
413.738	29.52
413.945	29.18
414.151	28.69
414.357	28.86
414.564	28.44
414.77	28.66
414.976	28.72
415.182	28.57
415.389	28.32
415.595	28.2
415.801	28.07
416.007	28.04
416.214	27.83
416.42	27.65
416.626	27.57
416.832	27.78
417.038	27.86
417.244	27.79
417.45	27.88
417.657	27.75
417.863	27.77
418.069	27.78
418.275	27.96
418.481	28.19
418.687	28.47
418.893	28.48
419.099	28.31
419.305	28.19
419.511	28.18
419.717	28.03
419.923	28.08
420.129	28.12
420.335	27.98
420.541	27.85
420.746	27.8
420.952	27.55
421.158	27.56
421.364	27.49
421.57	27.57
421.776	27.54
421.982	27.66
422.187	27.76
422.393	27.59
422.599	27.74
422.805	27.76
423.01	27.77
423.216	27.8
423.422	27.65
423.628	27.56
423.833	27.51
424.039	27.62
424.245	27.58
424.45	27.49
424.656	27.54
424.862	27.42
425.067	27.32
425.273	27.3
425.478	27.28
425.684	27.29
425.889	27.4
426.095	27.41
426.301	27.19
426.506	27.07
426.712	26.98
426.917	26.82
427.123	26.66
427.328	26.5
427.533	26.37
427.739	26.5
427.944	26.64
428.15	26.52
428.355	26.57
428.561	26.38
428.766	26.21
428.971	26.34
429.177	26.46
429.382	26.6
429.587	26.67
429.793	26.79
429.998	26.52
430.203	26.28
430.408	26.25
430.614	26.08
430.819	26.3
431.024	26.52
431.229	26.41
431.434	26.41
431.64	26.26
431.845	26.18
432.05	26.16
432.255	26.35
432.46	26.45
432.665	26.69
432.87	26.54
433.076	26.37
433.281	26.18
433.486	26.15
433.691	26.15
433.896	26.14
434.101	26.29
434.306	26.18
434.511	25.82
434.716	25.79
434.921	25.59
435.126	25.56
435.331	25.5
435.535	25.51
435.74	25.68
435.945	25.73
436.15	25.85
436.355	25.71
436.56	25.75
436.765	26.08
436.97	25.97
437.174	25.92
437.379	26
437.584	26.32
437.789	26.35
437.993	26.38
438.198	26.38
438.403	26.43
438.608	26.47
438.812	26.59
439.017	26.65
439.222	26.83
439.426	26.8
439.631	26.8
439.836	26.66
440.04	26.67
440.245	26.47
440.45	26.37
440.654	26.4
440.859	26.52
441.063	26.35
441.268	26.28
441.472	26.24
441.677	26.37
441.881	26.32
442.086	26.45
442.29	26.48
442.495	26.58
442.699	26.57
442.904	26.41
443.108	26.18
443.312	26.23
443.517	26.31
443.721	26.24
443.925	26.13
444.13	26.31
444.334	26.01
444.538	25.91
444.743	25.87
444.947	25.85
445.151	25.84
445.356	25.99
445.56	25.84
445.764	25.72
445.968	25.57
446.173	25.46
446.377	25.36
446.581	25.41
446.785	25.45
446.989	25.46
447.193	25.49
447.398	25.51
447.602	25.48
447.806	25.73
448.01	25.74
448.214	25.86
448.418	26.03
448.622	25.9
448.826	26.02
449.03	26
449.234	25.91
449.438	25.94
449.642	26.02
449.846	26
450.05	25.85
450.254	25.76
450.458	25.84
450.662	25.57
450.866	25.69
451.069	25.63
451.273	25.58
451.477	25.61
451.681	25.48
451.885	25.25
452.089	25.23
452.292	25.12
452.496	25.09
452.7	25.11
452.904	25.22
453.107	25.21
453.311	25.03
453.515	25.13
453.719	25.05
453.922	25.08
454.126	24.99
454.33	24.93
454.533	25.1
454.737	25.11
454.94	24.94
455.144	25.01
455.348	25.08
455.551	25.1
455.755	24.95
455.958	25.01
456.162	24.92
456.365	25.07
456.569	25.16
456.772	25.03
456.976	24.98
457.179	24.9
457.383	24.82
457.586	24.77
457.79	24.89
457.993	25.17
458.196	25.14
458.4	25.26
458.603	25.33
458.807	25.28
459.01	25.44
459.213	25.51
459.417	25.53
459.62	25.57
459.823	25.51
460.026	25.47
460.23	25.38
460.433	25.47
460.636	25.56
460.839	25.44
461.042	25.43
461.246	25.4
461.449	25.38
461.652	25.46
461.855	25.53
462.058	25.59
462.261	25.85
462.464	25.77
462.668	25.61
462.871	25.55
463.074	25.63
463.277	25.61
463.48	25.58
463.683	25.52
463.886	25.5
464.089	25.41
464.292	25.55
464.495	25.32
464.698	25.39
464.901	25.53
465.104	25.55
465.306	25.55
465.509	25.59
465.712	25.57
465.915	25.85
466.118	26
466.321	26.13
466.524	26.24
466.726	26.2
466.929	26.17
467.132	26.39
467.335	26.38
467.538	26.61
467.74	26.75
467.943	26.8
468.146	26.82
468.348	26.57
468.551	26.59
468.754	26.56
468.956	26.64
469.159	26.62
469.362	26.32
469.564	26.27
469.767	26.23
469.969	26.24
470.172	26.25
470.375	26.33
470.577	26.47
470.78	26.49
470.982	26.4
471.185	26.37
471.387	26.61
471.59	26.9
471.792	27.04
471.995	27.16
472.197	27.09
472.399	27.03
472.602	26.95
472.804	26.96
473.007	26.99
473.209	27.06
473.411	27.12
473.614	27
473.816	26.95
474.018	26.92
474.22	26.81
474.423	26.77
474.625	26.73
474.827	26.74
475.03	26.82
475.232	26.88
475.434	27
475.636	26.97
475.838	27.08
476.04	27.01
476.243	26.98
476.445	26.97
476.647	26.85
476.849	27
477.051	26.93
477.253	27
477.455	26.79
477.657	26.65
477.859	26.78
478.061	26.72
478.263	26.76
478.465	26.68
478.667	26.56
478.869	26.8
479.071	26.64
479.273	26.67
479.475	26.48
479.677	26.52
479.879	26.52
480.081	26.34
480.283	26.36
480.485	26.37
480.686	26.31
480.888	26.33
481.09	26.2
481.292	26.24
481.494	26.25
481.695	26.31
481.897	26.39
482.099	26.35
482.301	26.51
482.502	26.48
482.704	26.41
482.906	26.49
483.107	26.52
483.309	26.61
483.511	26.58
483.712	26.58
483.914	26.63
484.115	26.64
484.317	26.68
484.519	26.65
484.72	26.64
484.922	26.62
485.123	26.58
485.325	26.6
485.526	26.54
485.728	26.58
485.929	26.56
486.131	26.43
486.332	26.38
486.534	26.31
486.735	26.32
486.936	26.35
487.138	26.38
487.339	26.41
487.541	26.38
487.742	26.34
487.943	26.31
488.144	26.35
488.346	26.36
488.547	26.38
488.748	26.43
488.95	26.33
489.151	26.36
489.352	26.41
489.553	26.49
489.755	26.51
489.956	26.62
490.157	26.58
490.358	26.52
490.559	26.56
490.76	26.57
490.961	26.57
491.163	26.68
491.364	26.6
491.565	26.49
491.766	26.45
491.967	26.5
492.168	26.44
492.369	26.47
492.57	26.48
492.771	26.49
492.972	26.59
493.173	26.59
493.374	26.57
493.575	26.53
493.776	26.75
493.976	26.73
494.177	26.58
494.378	26.58
494.579	26.66
494.78	26.8
494.981	26.81
495.182	26.75
495.382	26.88
495.583	26.97
495.784	27.05
495.985	26.88
496.185	26.89
496.386	26.97
496.587	27.12
496.788	27.01
496.988	26.98
497.189	27.17
497.39	27.12
497.59	27.16
497.791	27.05
497.992	27.23
498.192	27.35
498.393	27.59
498.593	27.67
498.794	27.72
498.994	27.9
499.195	27.85
499.395	27.75
499.596	27.86
499.796	27.89
499.997	28.14
500.197	28.22
500.398	28.25
500.598	28.05
500.799	28.19
500.999	28.05
501.199	27.96
501.4	28.04
501.6	28.25
501.801	28.4
502.001	28.42
502.201	28.45
502.402	28.36
502.602	28.37
502.802	28.58
503.002	28.6
503.203	28.61
503.403	28.88
503.603	28.85
503.803	28.76
504.003	28.7
504.204	28.77
504.404	28.75
504.604	28.83
504.804	28.99
505.004	28.86
505.204	28.88
505.404	29.14
505.604	29.05
505.804	29.22
506.005	29.44
506.205	29.55
506.405	29.73
506.605	29.68
506.805	29.87
507.005	29.87
507.204	30.16
507.404	30.27
507.604	30.26
507.804	30.43
508.004	30.76
508.204	30.8
508.404	30.99
508.604	30.97
508.804	31.11
509.003	30.99
509.203	31.17
509.403	31.1
509.603	31.24
509.803	31.33
510.002	31.31
510.202	31.22
510.402	31.24
510.602	31.04
510.801	30.99
511.001	31.04
511.201	31.11
511.4	31.17
511.6	31.45
511.8	31.47
511.999	31.6
512.199	31.75
512.398	31.76
512.598	31.76
512.797	31.98
512.997	32.11
513.197	32.23
513.396	32.43
513.596	32.47
513.795	32.37
513.994	32.59
514.194	32.72
514.393	32.84
514.593	32.95
514.792	33.14
514.992	33.1
515.191	33.21
515.39	33.34
515.59	33.44
515.789	33.63
515.988	33.77
516.188	33.76
516.387	33.73
516.586	33.93
516.786	34.17
516.985	34.3
517.184	34.52
517.383	34.72
517.582	34.86
517.782	34.98
517.981	35.06
518.18	35.22
518.379	35.31
518.578	35.31
518.777	35.22
518.976	35.27
519.176	35.34
519.375	35.42
519.574	35.38
519.773	35.35
519.972	35.42
520.171	35.47
520.37	35.44
520.569	35.43
520.768	35.65
520.967	35.76
521.166	35.75
521.365	35.73
521.564	35.77
521.762	35.85
521.961	35.96
522.16	35.99
522.359	35.97
522.558	36.02
522.757	36.13
522.956	36.22
523.154	36.34
523.353	36.39
523.552	36.65
523.751	36.63
523.949	36.88
524.148	36.88
524.347	36.91
524.546	37.04
524.744	37.08
524.943	37.12
525.142	37.16
525.34	37.2
525.539	37.33
525.737	37.27
525.936	37.34
526.135	37.31
526.333	37.59
526.532	37.73
526.73	37.76
526.929	37.9
527.127	38.06
527.326	38.11
527.524	38.2
527.723	38.19
527.921	38.27
528.12	38.28
528.318	38.31
528.516	38.2
528.715	38.15
528.913	38.2
529.112	38.14
529.31	38.08
529.508	38.07
529.707	38.07
529.905	38.13
530.103	38.1
530.301	38.24
530.5	38.25
530.698	38.31
530.896	38.31
531.094	38.34
531.293	38.52
531.491	38.49
531.689	38.6
531.887	38.6
532.085	38.63
532.283	38.69
532.481	38.6
532.68	38.64
532.878	38.65
533.076	38.75
533.274	38.71
533.472	38.64
533.67	38.78
533.868	38.81
534.066	38.82
534.264	38.78
534.462	38.86
534.66	38.96
534.858	38.98
535.056	39.04
535.253	39.04
535.451	39.23
535.649	39.25
535.847	39.29
536.045	39.15
536.243	39.08
536.441	39.06
536.638	39.07
536.836	39.03
537.034	38.99
537.232	39.01
537.43	39.05
537.627	39.03
537.825	39.01
538.023	38.95
538.22	38.97
538.418	39.21
538.616	39.31
538.813	39.18
539.011	39.19
539.209	39.3
539.406	39.27
539.604	39.24
539.801	39.22
539.999	39.31
540.196	39.26
540.394	39.36
540.591	39.33
540.789	39.28
540.986	39.42
541.184	39.4
541.381	39.38
541.579	39.25
541.776	39.23
541.974	39.17
542.171	39.08
542.368	39.08
542.566	39.03
542.763	38.95
542.96	38.95
543.158	38.71
543.355	38.59
543.552	38.42
543.75	38.44
543.947	38.33
544.144	38.25
544.341	38.13
544.539	38.14
544.736	38.07
544.933	37.97
545.13	37.88
545.327	37.9
545.524	37.9
545.722	38.06
545.919	38.11
546.116	38.17
546.313	38.24
546.51	38.47
546.707	38.53
546.904	38.62
547.101	38.7
547.298	38.9
547.495	39.01
547.692	39.1
547.889	39.1
548.086	39.28
548.283	39.32
548.48	39.37
548.677	39.37
548.874	39.37
549.07	39.47
549.267	39.48
549.464	39.39
549.661	39.39
549.858	39.61
550.055	39.64
550.251	39.43
550.448	39.33
550.645	39.2
550.842	39.15
551.038	38.81
551.235	38.69
551.432	38.85
551.628	38.92
551.825	38.91
552.022	38.83
552.218	38.67
552.415	38.84
552.612	38.99
552.808	39.14
553.005	39.05
553.201	39.4
553.398	39.41
553.594	39.34
553.791	39.17
553.987	39.25
554.184	39.21
554.38	39.13
554.577	39.11
554.773	39.11
554.97	39.04
555.166	39.14
555.362	38.8
555.559	38.97
555.755	39.14
555.952	39.12
556.148	38.99
556.344	38.98
556.541	39.04
556.737	39.09
556.933	39.08
557.129	39.09
557.326	39.22
557.522	39.5
557.718	39.51
557.914	39.48
558.11	39.6
558.307	39.76
558.503	39.93
558.699	40.05
558.895	39.96
559.091	40.22
559.287	40.19
559.483	40.24
559.679	40.24
559.876	40.07
560.072	39.9
560.268	40.12
560.464	40.1
560.66	39.96
560.856	40.14
561.052	40.17
561.247	39.93
561.443	39.79
561.639	39.62
561.835	39.45
562.031	39.34
562.227	39.42
562.423	39.1
562.619	39.04
562.815	38.97
563.01	38.99
563.206	39.05
563.402	39.16
563.598	39.26
563.793	39.31
563.989	39.41
564.185	39.46
564.381	39.49
564.576	39.46
564.772	39.68
564.968	39.78
565.163	39.55
565.359	39.66
565.555	39.76
565.75	39.77
565.946	39.73
566.141	39.84
566.337	39.81
566.532	39.75
566.728	39.94
566.923	39.72
567.119	39.7
567.314	39.82
567.51	39.74
567.705	39.58
567.901	39.56
568.096	39.59
568.292	39.52
568.487	39.58
568.682	39.52
568.878	39.51
569.073	39.52
569.268	39.51
569.464	39.52
569.659	39.59
569.854	39.5
570.05	39.7
570.245	39.79
570.44	39.96
570.635	40.1
570.831	40.32
571.026	40.33
571.221	40.48
571.416	40.38
571.611	40.2
571.806	39.87
572.002	39.98
572.197	39.87
572.392	39.88
572.587	39.7
572.782	39.64
572.977	39.52
573.172	39.44
573.367	39.46
573.562	39.58
573.757	39.71
573.952	40.03
574.147	40.01
574.342	40.09
574.537	39.83
574.732	39.97
574.927	39.96
575.121	39.85
575.316	39.84
575.511	39.78
575.706	39.61
575.901	39.47
576.096	39.32
576.29	39.27
576.485	39.2
576.68	39.35
576.875	39.05
577.069	38.95
577.264	39.08
577.459	39.05
577.654	39.11
577.848	39.18
578.043	39.35
578.238	39.26
578.432	39.27
578.627	39.15
578.821	39.18
579.016	39.2
579.21	39.34
579.405	39.09
579.6	39.18
579.794	38.95
579.989	39
580.183	38.88
580.378	38.94
580.572	39.04
580.766	38.9
580.961	38.95
581.155	39.08
581.35	38.83
581.544	38.93
581.738	38.98
581.933	39.03
582.127	38.97
582.321	39.01
582.516	39.06
582.71	39.06
582.904	39.3
583.099	39.27
583.293	39.35
583.487	39.52
583.681	39.65
583.875	39.47
584.07	39.56
584.264	39.7
584.458	39.69
584.652	39.61
584.846	39.42
585.04	39.19
585.234	39.05
585.428	39
585.623	38.74
585.817	38.73
586.011	38.64
586.205	38.39
586.399	38.17
586.593	37.95
586.787	37.97
586.981	38.29
587.174	38.13
587.368	38.1
587.562	38.03
587.756	38.63
587.95	38.51
588.144	38.61
588.338	38.78
588.532	38.96
588.725	39.3
588.919	39.39
589.113	38.81
589.307	39.08
589.501	39.21
589.694	39.21
589.888	39.01
590.082	39.22
590.275	39.35
590.469	39.19
590.663	39.35
590.856	39.4
591.05	39.17
591.244	39.71
591.437	39.92
591.631	40.03
591.824	40.09
592.018	39.94
592.212	39.67
592.405	39.67
592.599	39.82
592.792	39.5
592.986	39.43
593.179	39.54
593.372	39.42
593.566	38.99
593.759	38.86
593.953	38.62
594.146	38.9
594.339	38.77
594.533	38.59
594.726	38.64
594.92	38.76
595.113	38.78
595.306	38.9
595.499	38.81
595.693	38.79
595.886	38.78
596.079	39.22
596.272	39.15
596.466	39.34
596.659	39.58
596.852	39.64
597.045	39.64
597.238	39.62
597.431	39.67
597.624	39.76
597.818	40.05
598.011	40.29
598.204	40.09
598.397	39.94
598.59	40.03
598.783	40.11
598.976	40.01
599.169	39.86
599.362	39.74
599.555	39.87
599.748	39.8
599.941	39.77
600.134	39.55
600.326	39.61
600.519	39.91
600.712	39.82
600.905	39.52
601.098	39.49
601.291	39.6
601.483	39.77
601.676	39.64
601.869	39.68
602.062	39.7
602.255	39.81
602.447	39.83
602.64	39.77
602.833	40.03
603.025	40.17
603.218	40.22
603.411	40.54
603.603	40.56
603.796	40.59
603.989	40.66
604.181	40.59
604.374	40.48
604.566	40.53
604.759	40.41
604.951	40.23
605.144	40.26
605.336	40.31
605.529	40.15
605.721	40.01
605.914	40.02
606.106	39.74
606.299	39.89
606.491	40.13
606.683	40.06
606.876	40.07
607.068	40.19
607.26	40.1
607.453	40.06
607.645	40.01
607.837	40.12
608.03	39.91
608.222	40.07
608.414	39.69
608.606	39.4
608.799	39.24
608.991	39.07
609.183	38.97
609.375	38.71
609.567	38.48
609.759	38.08
609.952	37.68
610.144	37.31
610.336	37.28
610.528	37.21
610.72	37.04
610.912	37.07
611.104	36.83
611.296	36.5
611.488	36.45
611.68	36.19
611.872	36.25
612.064	36.35
612.256	36.69
612.448	36.5
612.64	36.46
612.832	36.31
613.023	36.14
613.215	36.32
613.407	36.47
613.599	36.68
613.791	37.09
613.983	37.43
614.174	37.51
614.366	37.54
614.558	37.6
614.75	37.83
614.941	38.17
615.133	38.15
615.325	38.44
615.516	38.4
615.708	38.67
615.9	38.72
616.091	38.67
616.283	39
616.475	38.88
616.666	39.14
616.858	39.43
617.049	39.27
617.241	39.47
617.432	39.44
617.624	39.59
617.815	39.35
618.007	39.46
618.198	39.43
618.39	39.34
618.581	39.75
618.773	39.98
618.964	40
619.155	40.16
619.347	40.06
619.538	40.21
619.729	40.48
619.921	40.54
620.112	40.84
620.303	40.96
620.494	40.9
620.686	40.71
620.877	40.34
621.068	40.21
621.259	40.15
621.451	40.22
621.642	39.8
621.833	39.78
622.024	39.68
622.215	39.39
622.406	39.29
622.597	39.2
622.788	39.14
622.98	39.07
623.171	38.91
623.362	39.02
623.553	39.07
623.744	39.49
623.935	39.42
624.126	39.28
624.317	39
624.508	39.04
624.698	39.19
624.889	39.04
625.08	39.11
625.271	39.09
625.462	39.11
625.653	39.35
625.844	39.16
626.034	39.13
626.225	39.44
626.416	39.74
626.607	39.73
626.798	39.77
626.988	39.99
627.179	40.18
627.37	40.32
627.56	40.52
627.751	40.3
627.942	40.15
628.132	40.02
628.323	39.86
628.514	39.81
628.704	39.82
628.895	39.57
629.085	39.34
629.276	39.23
629.466	39.16
629.657	38.85
629.847	38.69
630.038	38.8
630.228	39.19
630.419	39.26
630.609	39.23
630.8	39.12
630.99	39.02
631.181	39.21
631.371	39.11
631.561	39.37
631.752	39.63
631.942	39.72
632.132	39.52
632.323	39.29
632.513	39.63
632.703	39.49
632.893	39.56
633.084	40.05
633.274	40.19
633.464	40.23
633.654	40.1
633.844	40.05
634.034	40.14
634.225	40.33
634.415	40.65
634.605	40.22
634.795	40.3
634.985	40.39
635.175	40.31
635.365	40.42
635.555	40.18
635.745	39.79
635.935	39.77
636.125	39.84
636.315	40.07
636.505	39.63
636.695	39.79
636.885	39.95
637.075	40.08
637.265	40.21
637.455	40.09
637.644	40.41
637.834	40.82
638.024	40.71
638.214	40.67
638.404	40.5
638.593	40.37
638.783	40.1
638.973	39.93
639.163	39.72
639.352	39.64
639.542	39.85
639.732	39.91
639.921	39.41
640.111	39.51
640.301	39.2
640.49	39.58
640.68	39.92
640.87	40.37
641.059	40.56
641.249	40.51
641.438	40.39
641.628	40.1
641.817	40.08
642.007	40.68
642.196	40.59
642.386	40.88
642.575	40.06
642.764	39.87
642.954	39.8
643.143	39.46
643.333	39.62
643.522	39.81
643.711	40.09
643.901	40.02
644.09	39.66
644.279	39.58
644.469	39.69
644.658	40.35
644.847	40.03
645.036	40.01
645.226	40.12
645.415	40.27
645.604	40.15
645.793	39.47
645.982	39.26
646.171	39.09
646.361	39.22
646.55	39.02
646.739	39.1
646.928	39.37
647.117	39.17
647.306	39.25
647.495	38.95
647.684	38.7
647.873	38.77
648.062	39.02
648.251	39.44
648.44	39.44
648.629	39.4
648.818	39.14
649.007	39.05
649.196	39.2
649.384	39.33
649.573	39.26
649.762	39.04
649.951	39.53
650.14	39.58
650.328	39.21
650.517	39.08
650.706	39.41
650.895	39.61
651.083	39.93
651.272	39.95
651.461	39.85
651.65	40.13
651.838	40.49
652.027	40.11
652.216	40.14
652.404	40.25
652.593	40.28
652.781	40.15
652.97	39.83
653.158	39.63
653.347	39.71
653.535	39.54
653.724	39.4
653.912	39.51
654.101	39.38
654.289	38.93
654.478	39.29
654.666	39.52
654.855	39.68
655.043	39.77
655.231	39.25
655.42	38.67
655.608	39.02
655.796	39.2
655.985	38.93
656.173	39.3
656.361	39.68
656.55	39.89
656.738	39.95
656.926	39.9
657.114	39.59
657.302	39.98
657.491	40.18
657.679	40.27
657.867	40.6
658.055	40.62
658.243	40.49
658.431	40.3
658.619	39.84
658.807	39.58
658.996	39.54
659.184	39.57
659.372	39.4
659.56	39.42
659.748	39.25
659.936	38.96
660.124	38.89
660.311	38.73
660.499	38.71
660.687	38.95
660.875	38.98
661.063	38.94
661.251	38.78
661.439	39.42
661.627	39.73
661.814	39.45
662.002	39.3
662.19	39.46
662.378	39.63
662.565	40.23
662.753	40.36
662.941	40.52
663.129	40.63
663.316	41.18
663.504	40.42
663.692	39.87
663.879	40.19
664.067	40.12
664.254	39.72
664.442	39.49
664.63	39.31
664.817	39.18
665.005	39.5
665.192	39.37
665.38	39.22
665.567	39.96
665.755	40.48
665.942	40.13
666.13	39.99
666.317	40.45
666.504	40.7
666.692	40.09
666.879	40.13
667.067	40
667.254	39.8
667.441	39.66
667.629	39.23
667.816	38.97
668.003	39.23
668.19	39.22
668.378	39.44
668.565	39.52
668.752	39.47
668.939	39.28
669.127	39.01
669.314	39.12
669.501	39.52
669.688	39.91
669.875	39.8
670.062	39.41
670.249	39.91
670.436	40.03
670.623	40.11
670.81	40.32
670.997	40.08
671.184	40.15
671.371	40.36
671.558	40.14
671.745	39.61
671.932	39.56
672.119	39.56
672.306	39.16
672.493	38.54
672.68	38.32
672.867	39.04
673.054	39.22
673.24	39.07
673.427	38.77
673.614	38.93
673.801	38.48
673.988	38.61
674.174	38.94
674.361	38.97
674.548	39.47
674.734	39.29
674.921	39.13
675.108	39.46
675.294	39.92
675.481	40.44
675.668	40.26
675.854	40.71
676.041	40.93
676.227	41.3
676.414	41.69
676.601	42.03
676.787	42.12
676.974	41.31
677.16	41.03
677.347	40.65
677.533	40.29
677.719	40.14
677.906	40.42
678.092	39.95
678.279	40.01
678.465	39.55
678.651	38.77
678.838	39.41
679.024	39.76
679.21	39.68
679.397	39.82
679.583	39.88
679.769	40.47
679.955	40.47
680.142	41.15
680.328	40.98
680.514	41.04
680.7	41.08
680.886	40.75
681.073	40.98
681.259	40.9
681.445	40.82
681.631	40.43
681.817	39.83
682.003	39.96
682.189	39.68
682.375	39.56
682.561	39.39
682.747	39.6
682.933	39.17
683.119	38.98
683.305	39.11
683.491	38.7
683.677	38.71
683.863	38.96
684.049	38.57
684.235	38.31
684.42	38.09
684.606	38.47
684.792	38.6
684.978	38.62
685.164	38.24
685.349	37.96
685.535	38.53
685.721	38.61
685.907	38.55
686.092	38.78
686.278	38.94
686.464	39.23
686.649	39.25
686.835	39.06
687.021	39.27
687.206	39.52
687.392	39.74
687.577	39.77
687.763	40.23
687.948	39.82
688.134	39.88
688.319	39.46
688.505	38.93
688.69	38.39
688.876	38.53
689.061	38.77
689.247	38.31
689.432	38.13
689.618	37.88
689.803	37.19
689.988	37.47
690.174	37.73
690.359	37.9
690.544	38.64
690.73	39.06
690.915	38.95
691.1	38.98
691.285	39.68
691.471	40.19
691.656	40.3
691.841	40.46
692.026	40.84
692.211	40.33
692.396	40.22
692.582	39.82
692.767	39.68
692.952	39.91
693.137	39.3
693.322	38.75
693.507	38.63
693.692	39.06
693.877	39.52
694.062	39.09
694.247	38.85
694.432	39.08
694.617	38.6
694.802	38.86
694.987	38.68
695.172	39.13
695.357	40.02
695.541	40.21
695.726	40.07
695.911	39.79
696.096	39.7
696.281	40.16
696.466	40.33
696.65	40.96
696.835	41.14
697.02	41.3
697.204	41.35
697.389	40.97
697.574	40.64
697.759	40.29
697.943	40.56
698.128	41.16
698.312	40.91
698.497	40.51
698.682	40.51
698.866	40.31
699.051	40.4
699.235	40.14
699.42	40.38
699.604	40.27
699.789	40.21
699.973	40.27
700.158	39.94
700.342	40.21
700.527	40.64
700.711	40.55
700.895	40.51
701.08	40.55
701.264	40.77
701.448	40.48
701.633	40.99
701.817	41.2
702.001	41.22
702.186	40.81
702.37	40.11
702.554	39.17
702.738	39.25
702.923	39.49
703.107	38.86
703.291	38.68
703.475	38.94
703.659	38.79
703.843	38.86
704.027	38.64
704.212	38.65
704.396	39.18
704.58	40.44
704.764	40.18
704.948	39.74
705.132	39.5
705.316	39.53
705.5	38.44
705.684	37.77
705.868	38.04
706.052	37.71
706.235	38
706.419	38.1
706.603	37.61
706.787	37.36
706.971	37.82
707.155	37.79
707.339	38.28
707.522	38.8
707.706	39.26
707.89	38.85
708.074	39.66
708.257	39.33
708.441	38.83
708.625	39.35
708.808	39.62
708.992	39.85
709.176	39.76
709.359	39.35
709.543	40.05
709.727	40.24
709.91	40.57
710.094	40.22
710.277	40.95
710.461	40.76
710.644	40.42
710.828	40.1
711.011	39.97
711.195	39.97
711.378	40.55
711.562	39.6
711.745	39.72
711.928	39.09
712.112	38.58
712.295	38.32
712.478	38.57
712.662	38.41
712.845	37.9
713.028	37.53
713.212	38.54
713.395	37.85
713.578	38.15
713.761	37.4
713.945	37.12
714.128	37.44
714.311	37.32
714.494	38.28
714.677	38.75
714.86	39.09
715.043	39.04
715.227	38.07
715.41	37.7
715.593	37.87
715.776	37.91
715.959	38.86
716.142	38.95
716.325	38.94
716.508	37.73
716.691	36.98
716.874	37.5
717.057	37.17
717.239	37.86
717.422	38.37
717.605	37.74
717.788	38.02
717.971	38
718.154	37.8
718.337	37.62
718.519	38.85
718.702	39.81
718.885	39.43
719.068	39.79
719.25	39.02
719.433	39.1
719.616	39.93
719.798	40.38
719.981	39.87
720.164	40.41
720.346	40.1
720.529	39.33
720.712	38.61
720.894	39.93
721.077	40.06
721.259	38.99
721.442	38.12
721.624	37.54
721.807	37.4
721.989	37.38
722.172	36.22
722.354	36.27
722.537	36.1
722.719	36.02
722.901	35.81
723.084	35.67
723.266	37.64
723.448	38.58
723.631	39.47
723.813	38.89
723.995	39.84
724.178	40.67
724.36	41.17
724.542	41.12
724.724	42.37
724.907	40.8
725.089	39.82
725.271	39.45
725.453	38.98
725.635	38.35
725.817	38.63
725.999	37.86
726.181	38.08
726.364	37.31
726.546	37.71
726.728	36.79
726.91	36.91
727.092	37.68
727.274	37.51
727.456	38.66
727.638	39.04
727.819	39.56
728.001	38.94
728.183	38.5
728.365	38.62
728.547	36.68
728.729	37.22
728.911	37.72
729.093	37.87
729.274	38.25
729.456	37.35
729.638	36.87
729.82	36.67
730.001	37.27
730.183	36.72
730.365	36.94
730.546	38.71
730.728	37.92
730.91	37.65
731.091	37.94
731.273	37.28
731.455	37.64
731.636	37.1
731.818	36.17
731.999	35.65
732.181	35.93
732.362	36.34
732.544	36.58
732.725	36.98
732.907	36.84
733.088	37.17
733.27	37.47
733.451	37.72
733.633	37.69
733.814	39.08
733.995	40.09
734.177	41.21
734.358	41.7
734.539	41.57
734.721	40.83
734.902	41.46
735.083	40.9
735.264	40.39
735.446	39.93
735.627	40.8
735.808	39.69
735.989	39.41
736.17	38.43
736.351	37.93
736.533	37.98
736.714	38.33
736.895	38.39
737.076	38.06
737.257	38.4
737.438	38.44
737.619	38.3
737.8	39.87
737.981	39.97
738.162	39.81
738.343	39.84
738.524	40.09
738.705	39.82
738.886	39.6
739.067	39.37
739.247	39.55
739.428	38.58
739.609	38.6
739.79	36.25
739.971	35.3
740.151	35.02
740.332	34.97
740.513	34.98
740.694	35.34
740.874	35.3
741.055	34.94
741.236	35.12
741.417	35.34
741.597	35.51
741.778	35.33
741.958	35.9
742.139	37.38
742.32	37.36
742.5	36.61
742.681	36.96
742.861	37.01
743.042	38.02
743.222	36.84
743.403	36.24
743.583	36.47
743.764	37.03
743.944	37
744.124	36.27
744.305	36.07
744.485	35.55
744.666	35.32
744.846	35.89
745.026	35.52
745.207	35.5
745.387	36.27
745.567	35.62
745.747	35.41
745.928	35.5
746.108	36.08
746.288	36.47
746.468	36.21
746.648	36.36
746.829	35.58
747.009	35.15
747.189	36.21
747.369	36.52
747.549	36.12
747.729	37.96
747.909	37.86
748.089	36.3
748.269	35.98
748.449	36.59
748.629	35.64
748.809	34.6
748.989	35.6
749.169	35.82
749.349	35.86
749.529	35.65
749.709	34.13
749.889	34.29
750.068	35.15
750.248	34.93
750.428	34.55
750.608	35.01
750.788	36.08
750.967	35.87
751.147	36.96
751.327	36.5
751.507	36.42
751.686	38.07
751.866	37.84
752.046	37.95
752.225	38.09
752.405	38.44
752.585	39.3
752.764	39.05
752.944	38.6
753.123	38.26
753.303	39.81
753.482	40.26
753.662	39.5
753.841	40.11
754.021	39.76
754.2	39.88
754.38	40.71
754.559	39.52
754.739	39.48
754.918	39.24
755.097	38.25
755.277	37.14
755.456	36.03
755.635	35.29
755.815	33.82
755.994	33.74
756.173	33.48
756.352	32.03
756.532	32.65
756.711	32.25
756.89	32.76
757.069	33.33
757.248	33.14
757.427	33.19
757.607	34.32
757.786	35.57
757.965	34.99
758.144	34.33
758.323	34.95
758.502	34.1
758.681	34.38
758.86	33.91
759.039	32.94
759.218	33.67
759.397	35.37
759.576	34.24
759.755	34.1
759.934	35.14
760.113	36.04
760.291	36.75
760.47	37
760.649	38.52
760.828	39.51
761.007	40.36
761.186	40.9
761.364	40.83
761.543	41.16
761.722	41.04
761.901	39.93
762.079	39.77
762.258	39.52
762.437	39.43
762.615	38.51
762.794	37.6
762.972	37.33
763.151	36.42
763.33	36.09
763.508	36.63
763.687	36.48
763.865	37.19
764.044	37.14
764.222	36.57
764.401	37.38
764.579	37.29
764.758	37.74
764.936	37.26
765.114	37.93
765.293	39.05
765.471	38.99
765.65	38.48
765.828	37.83
766.006	38.42
766.184	38.54
766.363	38.23
766.541	38.4
766.719	38.61
766.898	40.19
767.076	39.45
767.254	38.9
767.432	37.93
767.61	37.01
767.788	37
767.967	35.26
768.145	34.16
768.323	33.97
768.501	33.2
768.679	34.27
768.857	32.95
769.035	30.82
769.213	30.79
769.391	30.85
769.569	33.08
769.747	32.64
769.925	32.54
770.103	35.18
770.281	35.16
770.459	35.08
770.636	33.93
770.814	34.3
770.992	36.7
771.17	36.73
771.348	38.15
771.525	36.52
771.703	36.79
771.881	38.06
772.059	38.45
772.236	37.56
772.414	38.37
772.592	37.68
772.769	36.57
772.947	35.29
773.125	34.93
773.302	32.18
773.48	34.11
773.657	33.89
773.835	33.04
774.013	31.35
774.19	32.4
774.368	32.23
774.545	33.72
774.723	33.01
774.9	35.36
775.077	34.22
775.255	36.76
775.432	36.2
775.61	37.74
775.787	39.12
775.964	38.79
776.142	36.95
776.319	37.96
776.496	35.06
776.674	37.31
776.851	36.77
777.028	38.62
777.205	37.61
777.382	36.74
777.56	35.17
777.737	35.55
777.914	35.96
778.091	36.4
778.268	33.08
778.445	35.14
778.622	34.29
778.8	34.28
778.977	30.34
779.154	29.71
779.331	29.89
779.508	29.85
779.685	30.01
779.862	29.1
780.038	30.11
780.215	31.32
780.392	32.12
780.569	32.27
780.746	29.15
780.923	30.44
781.1	31.2
781.277	29.78
781.453	30.94
781.63	27.37
781.807	25.21
781.984	26.41
782.16	28.73
782.337	28.11
782.514	27.16
782.691	28.87
782.867	30.03
783.044	29.45
783.221	30.75
783.397	29.72
783.574	29.83
783.75	32.36
783.927	30.81
784.103	31.4
784.28	27.95
784.456	29
784.633	29.87
784.809	30.62
784.986	32.34
785.162	31.12
785.339	31.64
785.515	33.59
785.692	33.85
785.868	34.03
786.044	31.66
786.221	32.18
786.397	32.05
786.573	32.68
786.749	28.31
786.926	27.54
787.102	27.97
787.278	25.51
787.454	26.07
787.631	25.35
787.807	26.16
787.983	24.63
788.159	24.64
788.335	24
788.511	22.58
788.687	25.02
788.863	24.24
789.039	27.44
789.216	28.03
789.392	28.31
789.568	27.55
789.744	29.28
789.919	28.9
790.095	30.64
790.271	29.65
790.447	28.76
790.623	29.33
790.799	29.32
790.975	29.45
791.151	28.37
791.327	24.83
791.502	25.59
791.678	25.36
791.854	27.76
792.03	28.34
792.205	28.59
792.381	27.43
792.557	26.62
792.733	25.42
792.908	23.07
793.084	26.95
793.259	28.06
793.435	27.55
793.611	25.17
793.786	21.43
793.962	21.22
794.137	21.02
794.313	27.72
794.488	29.79
794.664	34.44
794.839	33.23
795.015	32.14
795.19	36.11
795.366	38.29
795.541	36.34
795.716	38.92
795.892	38.4
796.067	40.66
796.242	35.98
796.418	34.8
796.593	32.38
796.768	34.05
796.944	33.57
797.119	31.12
797.294	28.51
797.469	29.05
797.644	29.88
797.82	29.95
797.995	28.63
798.17	30.31
798.345	32.05
798.52	35
798.695	36.39
798.87	34.22
799.045	33.48
799.22	36.89
799.395	39.43
799.57	39.42
799.745	40.14
799.92	41.59
800.095	39.77
800.27	38.58
800.445	32.9
800.62	29.34
800.795	30.69
800.97	29.68
801.145	25.42
801.319	23.24
801.494	20.3
801.669	16.35
801.844	12.53
802.018	17.84
802.193	18.94
802.368	23.51
802.543	26.45
802.717	28.61
802.892	29.53
803.067	30.46
803.241	29.27
803.416	30.27
803.59	32.17
803.765	32.17
803.94	29.83
804.114	29.37
804.289	23.23
804.463	20.13
804.638	22.51
804.812	22.93
804.986	23.77
805.161	26.76
805.335	23.83
805.51	24.34
805.684	25.58
805.858	28.35
806.033	29.1
806.207	33.48
806.381	34.91
806.556	32.07
806.73	33.36
806.904	30.29
807.078	28.36
807.253	30.55
807.427	28.07
807.601	30.52
807.775	28.31
807.949	30.96
808.123	29.07
808.298	30.06
808.472	28.71
808.646	31.11
808.82	36.69
808.994	39
809.168	39.49
809.342	38.12
809.516	37.12
809.69	38.39
809.864	33.89
810.038	36.94
810.212	36.12
810.385	38.79
810.559	35.24
810.733	33.79
810.907	29.26
811.081	31.87
811.255	36.41
811.428	38.44
811.602	41.63
811.776	43.07
811.95	39.19
812.123	37.9
812.297	33.61
812.471	31.9
812.644	27.84
812.818	30.85
812.992	27.65
813.165	28.01
813.339	24.24
813.512	17.91
813.686	13.56
813.86	15.71
814.033	14.99
814.207	20.61
814.38	18.43
814.554	20.78
814.727	25.35
814.9	28.83
815.074	27.45
815.247	30.58
815.421	30.33
815.594	32.74
815.767	31.46
815.941	30.39
816.114	24.6
816.287	27.68
816.46	26.34
816.634	22.29
816.807	18.85
816.98	21.8
817.153	18.66
817.327	19.34
817.5	17.4
817.673	16.94
817.846	16.78
818.019	21.44
818.192	23.18
818.365	22.35
818.538	23.16
818.711	20.68
818.884	18.02
819.057	22.77
819.23	27.33
819.403	27.73
819.576	28.42
819.749	27.12
819.922	25.75
820.095	26.49
820.268	29.62
820.441	31.07
820.614	30.53
820.786	30.49
820.959	29.35
821.132	30.93
821.305	33.1
821.477	33.69
821.65	35.57
821.823	36.82
821.996	36.61
822.168	36.6
822.341	36.51
822.514	37.69
822.686	37.17
822.859	37.23
823.031	37.07
823.204	36.79
823.376	37.16
823.549	37.5
823.722	37.27
823.894	36.91
824.067	37.59
824.239	37.1
824.411	36.94
824.584	37.12
824.756	36.71
824.929	36.23
825.101	36.97
825.273	36.77
825.446	34.67
825.618	33.97
825.79	33.64
825.963	32.99
826.135	34.74
826.307	35.55
826.479	34.45
826.652	34.74
826.824	33.79
826.996	31.95
827.168	31.4
827.34	32.55
827.512	33.09
827.684	33.67
827.856	33.28
828.029	31.13
828.201	31.15
828.373	33.99
828.545	33.26
828.717	33.29
828.889	32.5
829.061	34.01
829.232	36.09
829.404	35.26
829.576	34.09
829.748	32.88
829.92	33.24
830.092	31.57
830.264	26.84
830.436	29.03
830.607	28.29
830.779	27.15
830.951	26.77
831.123	25.1
831.294	22.59
831.466	22.26
831.638	21.55
831.809	20.74
831.981	21.82
832.153	26.58
832.324	24.65
832.496	27.74
832.667	29.99
832.839	25.62
833.011	25.33
833.182	28.8
833.354	32.05
833.525	32.95
833.697	35.18
833.868	36.85
834.039	34.16
834.211	36.87
834.382	37.52
834.554	37.9
834.725	40.13
834.896	39.71
835.068	37.71
835.239	37.08
835.41	37.39
835.581	35.34
835.753	32.78
835.924	33.19
836.095	31.4
836.266	28.56
836.438	30.17
836.609	29.84
836.78	31.45
836.951	30.09
837.122	31.4
837.293	33.96
837.464	32.85
837.635	32.07
837.806	37.85
837.977	33.66
838.148	32.11
838.319	25.95
838.49	23.15
838.661	16.14
838.832	19.49
839.003	15.21
839.174	19.21
839.345	19.43
839.516	24.37
839.687	20.7
839.857	19.58
840.028	19.14
840.199	18.38
840.37	9.4
840.54	11.79
840.711	16.11
840.882	17.52
841.053	11.97
841.223	20.24
841.394	10.28
841.564	4.2
841.735	11.16
841.906	9.21
842.076	22.22
842.247	35.87
842.417	35.43
842.588	36.02
842.758	31.78
842.929	30.34
843.099	22.43
843.27	25.67
843.44	20.9
843.611	4.47
843.781	13.46
843.951	5.98
844.122	1.54
844.292	7.28
844.462	-7.01
844.633	-12.36
844.803	-17.45
844.973	-17.96
845.144	3.91
845.314	8.02
845.484	26.73
845.654	25.76
845.824	22.21
845.995	28.87
846.165	34.36
846.335	41.83
846.505	47.67
846.675	48.13
846.845	50.58
847.015	43.74
847.185	40
847.355	40.67
847.525	37.37
847.695	37.07
847.865	28.92
848.035	23.38
848.205	13.76
848.375	3.83
848.545	-11.46
848.715	-3.5
848.884	3.57
849.054	-1.51
849.224	-21.79
849.394	-0.53
849.564	4.2
849.733	18.37
849.903	19.1
850.073	35.78
850.243	47.53
850.412	47.45
850.582	53.88
850.752	38.9
850.921	38.6
851.091	35.54
851.26	34.79
851.43	27.18
851.599	14.82
851.769	-3.58
851.939	-15.19
852.108	-12.04
852.278	0.83
852.447	5.87
852.616	0.39
852.786	6.53
852.955	23.58
853.125	19.33
853.294	27.68
853.463	31.13
853.633	19.14
853.802	15
853.971	21.37
854.141	29.71
854.31	26.09
854.479	25.02
854.648	30.94
854.818	36.99
854.987	15.08
855.156	25.13
855.325	18.73
855.494	19.89
855.663	14.54
855.832	-4.42
856.001	19.31
856.171	-8.66
856.34	7.13
856.509	-6.63
856.678	-12.54
856.847	-0.38
857.016	-22.47
857.185	0.22
857.353	16.72
857.522	36.45
857.691	27.3
857.86	2.53
858.029	39.06
858.198	25.97
858.367	28.21
858.535	25.23
858.704	32.48
858.873	39.88
859.042	22.13
859.21	34.51
859.379	17.4
859.548	27.65
859.717	15.67
859.885	11.87
860.054	3.85
860.222	-18.15
860.391	-21.96
860.56	-63.21
860.728	-60.76
860.897	-41.71
861.065	-48.21
861.234	-25.11
861.402	-12.9
861.571	-3.43
861.739	-13.99
861.908	-19.82
862.076	14.01
862.244	16.53
862.413	19.94
862.581	18.56
862.749	31.72
862.918	-8.9
863.086	-28.88
863.254	-126.07
863.423	-103.54
863.591	-73.34
863.759	-95.89
863.927	-81.76
864.096	-58.73
864.264	-95.4
864.432	-93.94
864.6	-83.17
864.768	-43.11
864.936	-6.27
865.104	10.53
865.272	1.8
865.44	-38.56
865.608	-21.97
865.776	-14.77
865.944	-29.66
866.112	-31.94
866.28	-12.23
866.448	-12.65
866.616	-12.48
866.784	-40.46
866.952	-12.46
867.12	-19.24
867.288	-7.01
867.455	15.92
867.623	-0.56
867.791	-32.34
867.959	-31.27
868.127	24.39
868.294	-0.63
868.462	-21.9
868.63	-7.72
868.797	-68.76
868.965	-38.32
869.133	-68.97
869.3	-124.85
869.468	-152.83
869.636	-76.91
869.803	-38.19
869.971	-121.88
870.138	-157.91
870.306	-379.05
870.473	-294.49
870.641	-403.15
870.808	-243.91
870.975	-254.2
871.143	-158.11
871.31	-101.19
871.478	-157.87
871.645	-129.13
871.812	-104.56
871.98	-62.09
872.147	-39.76
872.314	-75.99
872.482	-48.71
872.649	-98.59
872.816	-99.33
872.983	-61.99
873.15	-40.3
873.318	-18.38
873.485	-5.49
873.652	16.38
873.819	18.57
873.986	13.34
874.153	15.75
874.32	26.54
874.487	42.4
874.654	32.7
874.821	37.92
874.988	21.38
875.155	25.48
875.322	31.98
875.489	31.35
875.656	49.8
875.823	57.43
875.99	28.05
876.157	40.84
876.324	24.57
876.49	46.4
876.657	32.49
876.824	39.85
876.991	31.46
877.157	25.72
877.324	25.66
877.491	6.51
877.658	14.88
877.824	18.58
877.991	-22.89
878.157	11.41
878.324	-18.6
878.491	-91.45
878.657	-15.74
878.824	-8.04
878.99	-0.7
879.157	-21.34
879.323	-20.52
879.49	-43.28
879.656	-21.32
879.823	-2.7
879.989	-6.72
880.156	-49.74
880.322	-38.79
880.488	-37.89
880.655	-41.12
880.821	-50.79
880.987	-30.29
881.154	-23.31
881.32	-14
881.486	-7.37
881.652	2.35
881.819	15.51
881.985	34.32
882.151	43.38
882.317	45.61
882.483	47.15
882.649	46.24
882.816	45.64
882.982	40.24
883.148	37.23
883.314	36.2
883.48	35.17
883.646	33.61
883.812	32.84
883.978	28.23
884.144	30.68
884.31	27.64
884.476	24.84
884.642	26.36
884.807	25.88
884.973	27.59
885.139	26.72
885.305	23.47
885.471	20.29
885.637	19.05
885.802	20.47
885.968	14.3
886.134	21.87
886.3	29
886.465	24.05
886.631	23.56
886.797	20.45
886.962	19.67
887.128	16.26
887.293	21.37
887.459	24.32
887.625	25.17
887.79	19.17
887.956	1.91
888.121	-21.02
888.287	-27.83
888.452	-16.72
888.618	-18.46
888.783	-4.14
