Data from 2938090_Reflection_2.txt Node
Date: Sat Jul 11 19:19:59 EDT 2015
User: robert
Spectrometer: USB4E03001
Autoset integration time: false
Trigger mode: 4
Integration Time (sec): 1.000000E-1
Scans to average: 10
Electric dark correction enabled: true
Nonlinearity correction enabled: false
Boxcar width: 5
Stray light correction enabled: false
XAxis mode: Wavelengths
Stop averaging: false
Number of Pixels in Spectrum: 3648
>>>>>Begin Spectral Data<<<<<
177.566	53.73
177.785	62.25
178.005	70.78
178.225	50.33
178.445	44.4
178.665	87.05
178.885	-44.13
179.105	-4.23
179.324	9.98
179.544	23.51
179.764	37.72
179.984	79.33
180.204	79.42
180.423	70.25
180.643	22.02
180.863	10.47
181.083	24.52
181.302	58.46
181.522	46.21
181.742	-83.17
181.961	-84.85
182.181	-180.16
182.401	-28.26
182.621	2.77
182.84	10.74
183.06	34.67
183.279	26.21
183.499	30.43
183.719	15.86
183.938	23.64
184.158	32.67
184.377	50.34
184.597	44.21
184.816	34.2
185.036	12.32
185.256	9.35
185.475	26.87
185.695	47.21
185.914	42.66
186.134	43.7
186.353	53.83
186.572	57.39
186.792	39.17
187.011	59.07
187.231	47.05
187.45	43.92
187.67	90.31
187.889	38.17
188.108	34.99
188.328	56.28
188.547	31.71
188.766	-14.58
188.986	-53.98
189.205	28.19
189.424	18.29
189.644	52.9
189.863	73.66
190.082	41.66
190.302	72.81
190.521	86.78
190.74	94.52
190.959	85.17
191.178	128.4
191.398	79.76
191.617	67.09
191.836	74.04
192.055	63.15
192.274	37.63
192.494	49.19
192.713	42.44
192.932	34.98
193.151	-45.79
193.37	-22.62
193.589	-6.36
193.808	9.08
194.027	33.28
194.246	-7540.82
194.465	525.62
194.685	120.5
194.904	300.7
195.123	301.99
195.342	236.78
195.561	-201.68
195.78	11.18
195.999	-10.48
196.218	-33.02
196.436	-87.47
196.655	0.23
196.874	-4.25
197.093	1.42
197.312	-36.76
197.531	-78.84
197.75	-43.11
197.969	-50.92
198.188	-142.7
198.407	-1000.9
198.625	-652.35
198.844	-132.08
199.063	-138.14
199.282	-138.67
199.501	-203.87
199.719	-21.85
199.938	8.05
200.157	-6.3
200.376	-4.87
200.594	-18.05
200.813	4
201.032	8.58
201.251	1.87
201.469	3.56
201.688	9.32
201.907	13.07
202.125	12.67
202.344	3.09
202.563	11.47
202.781	5.54
203	29.07
203.218	35.37
203.437	18.81
203.656	19.01
203.874	30.96
204.093	34.11
204.311	38.79
204.53	33.18
204.748	67.57
204.967	53.79
205.185	65.84
205.404	49.11
205.622	46
205.841	60.63
206.059	72.77
206.278	51.59
206.496	49.47
206.715	26.65
206.933	31.64
207.151	23.88
207.37	25.48
207.588	24.9
207.806	28.11
208.025	33.2
208.243	31.48
208.461	23.66
208.68	35.12
208.898	32.77
209.116	39.73
209.335	33.51
209.553	49.51
209.771	52.17
209.989	46.48
210.208	34.21
210.426	-174.76
210.644	-885.67
210.862	-38.77
211.081	-75.15
211.299	-60.22
211.517	-86.94
211.735	-190.6
211.953	-276.09
212.171	-184.19
212.39	-323.16
212.608	-179.83
212.826	-147.49
213.044	-72.44
213.262	-21.51
213.48	-50.48
213.698	864.4
213.916	45.09
214.134	74.97
214.352	2.37
214.57	-22.72
214.788	16.81
215.006	7.49
215.224	9.64
215.442	1.36
215.66	7.82
215.878	-3.68
216.096	-2.82
216.314	-30.6
216.532	-28.87
216.75	-29.36
216.968	-27.12
217.185	-2.27
217.403	6.48
217.621	-15.73
217.839	-13.25
218.057	-20.9
218.275	-15.91
218.492	-40.82
218.71	-24.82
218.928	-37.26
219.146	-32.49
219.363	-30.39
219.581	-48.17
219.799	-68.36
220.017	-76.43
220.234	-76.37
220.452	-131.36
220.67	-83.5
220.887	-44.48
221.105	-84.53
221.323	-93.95
221.54	-149.71
221.758	-146.21
221.976	-220.91
222.193	-1234.27
222.411	-180.82
222.629	-263.2
222.846	-153.72
223.064	-85.59
223.281	-84.73
223.499	-57.68
223.716	-52.07
223.934	-6.7
224.151	0.18
224.369	22.22
224.586	31.43
224.804	39.44
225.021	48.8
225.239	48.46
225.456	40.09
225.674	40.26
225.891	55.18
226.108	59.38
226.326	46.56
226.543	49.64
226.76	29.67
226.978	24.77
227.195	23.21
227.413	4.03
227.63	12.28
227.847	4.8
228.064	15.61
228.282	17.09
228.499	17.42
228.716	17.34
228.934	19.95
229.151	22.04
229.368	22.01
229.585	19.45
229.802	18.94
230.02	13.7
230.237	18.15
230.454	13.65
230.671	13.24
230.888	10.5
231.105	11.12
231.323	5.45
231.54	1.11
231.757	3.36
231.974	12.69
232.191	17.97
232.408	21.92
232.625	18.24
232.842	15.32
233.059	12.72
233.276	15.8
233.493	14.34
233.71	15.77
233.927	16.6
234.144	13.14
234.361	-0.55
234.578	-3.3
234.795	-0.92
235.012	0.03
235.229	7.05
235.446	9.81
235.663	4.91
235.879	3.87
236.096	11.02
236.313	12.26
236.53	11.07
236.747	17.16
236.964	18.4
237.181	20.07
237.397	22.34
237.614	17.59
237.831	16.94
238.048	22.17
238.264	23.84
238.481	14.48
238.698	13.83
238.915	8.7
239.131	10.39
239.348	9.54
239.565	5.78
239.781	-0.65
239.998	0.05
240.215	-4.1
240.431	-9.48
240.648	-8.06
240.865	-4.71
241.081	-2.81
241.298	0.54
241.514	0.59
241.731	0.88
241.947	0.46
242.164	2.82
242.38	3.18
242.597	4.35
242.814	6.23
243.03	4.6
243.246	6.9
243.463	4.8
243.679	4.14
243.896	5.17
244.112	4.34
244.329	5.89
244.545	6.98
244.762	7.67
244.978	6.07
245.194	4.17
245.411	6.82
245.627	7.23
245.843	7.64
246.06	8.63
246.276	7.63
246.492	8.65
246.709	8.91
246.925	8.41
247.141	8.98
247.357	10.23
247.574	10.05
247.79	9.57
248.006	8.12
248.222	9.69
248.439	9.74
248.655	9.09
248.871	7.4
249.087	7.22
249.303	6.66
249.519	5.02
249.736	1.78
249.952	2.32
250.168	1.61
250.384	3.15
250.6	1.26
250.816	0.73
251.032	2.36
251.248	3.67
251.464	2.47
251.68	3.21
251.896	4.49
252.112	6.23
252.328	6.84
252.544	6.48
252.76	5.79
252.976	6.46
253.192	7.41
253.408	5.02
253.624	4.71
253.84	3.86
254.056	3.52
254.272	5.26
254.487	8.9
254.703	9.93
254.919	11.91
255.135	8.58
255.351	7.68
255.567	1.98
255.782	2.5
255.998	2.96
256.214	3.37
256.43	1.78
256.646	-3.78
256.861	-9.3
257.077	-12.68
257.293	-11.08
257.508	-6.31
257.724	-5.37
257.94	-2.64
258.155	0.01
258.371	2.61
258.587	4.35
258.802	5.51
259.018	8.12
259.234	8.79
259.449	7.84
259.665	8.56
259.88	8.48
260.096	8.01
260.312	9.46
260.527	8.6
260.743	8.16
260.958	7.15
261.174	7.78
261.389	7
261.605	7.36
261.82	8.42
262.036	7.8
262.251	7.73
262.466	6.92
262.682	5.34
262.897	4.8
263.113	5.85
263.328	7.53
263.543	5.4
263.759	4.77
263.974	2.57
264.189	0.77
264.405	-0.28
264.62	-0.24
264.835	-1.04
265.051	-1.35
265.266	0.36
265.481	-0.65
265.696	0.48
265.912	2.98
266.127	2.22
266.342	3.8
266.557	5.42
266.773	5.62
266.988	5.54
267.203	7.05
267.418	6.22
267.633	5.71
267.848	6.29
268.064	3.34
268.279	1.71
268.494	1.24
268.709	-0.02
268.924	-0.69
269.139	-1.61
269.354	-0.93
269.569	0.36
269.784	1.72
269.999	2.25
270.214	1.34
270.429	4.02
270.644	4.98
270.859	5.68
271.074	6.48
271.289	7.44
271.504	8.46
271.719	9.26
271.934	8.85
272.149	7.86
272.363	9.25
272.578	8.97
272.793	8.16
273.008	8.21
273.223	9.27
273.438	8.99
273.653	8.19
273.867	7.54
274.082	4.51
274.297	3.84
274.512	4.44
274.726	3.43
274.941	4.58
275.156	5.92
275.371	6.94
275.585	5.78
275.8	4.95
276.015	5.72
276.229	5.45
276.444	7.06
276.659	7.47
276.873	8.06
277.088	8.1
277.302	6.07
277.517	5.42
277.732	3.54
277.946	5.02
278.161	7.03
278.375	7.05
278.59	8.7
278.804	9.42
279.019	7.88
279.233	8.58
279.448	6.62
279.662	7.86
279.877	7.39
280.091	7.21
280.306	6.67
280.52	6.63
280.735	5.15
280.949	5.1
281.163	3.47
281.378	5.62
281.592	2.96
281.806	3.13
282.021	3.51
282.235	4.42
282.449	4.94
282.664	4.34
282.878	3.78
283.092	5.22
283.307	3.98
283.521	5.36
283.735	5.03
283.949	6.98
284.164	8.78
284.378	9.15
284.592	8.5
284.806	7.39
285.02	7.8
285.234	8.59
285.449	8.8
285.663	9.04
285.877	8.72
286.091	7.84
286.305	5.75
286.519	5.06
286.733	4.85
286.947	4.75
287.161	5.45
287.375	5.92
287.589	5.11
287.803	4.84
288.017	5.84
288.231	6.42
288.445	6.97
288.659	9.65
288.873	9.22
289.087	8.39
289.301	8.19
289.515	8.93
289.729	9.09
289.943	8.53
290.157	8.44
290.371	8.05
290.584	8.52
290.798	7.96
291.012	7.04
291.226	6.95
291.44	8.03
291.654	7.91
291.867	6.4
292.081	6.15
292.295	4.87
292.509	4.98
292.722	3.23
292.936	2.29
293.15	1.33
293.364	1.44
293.577	2.22
293.791	1.53
294.005	1.81
294.218	2.27
294.432	-0.29
294.645	1.61
294.859	2.68
295.073	4.17
295.286	3.57
295.5	3.81
295.713	3.91
295.927	4.68
296.14	4.82
296.354	5.03
296.568	6.38
296.781	6.21
296.994	6.78
297.208	6.83
297.421	6.62
297.635	7.85
297.848	9.29
298.062	9.03
298.275	8.69
298.489	10.08
298.702	9.74
298.915	9.63
299.129	11.09
299.342	10.23
299.555	10.13
299.769	9.9
299.982	8.98
300.195	9.07
300.409	7.88
300.622	7.7
300.835	6.16
301.048	6.8
301.262	5.47
301.475	6.37
301.688	7.69
301.901	5.29
302.115	6.08
302.328	6.35
302.541	6.8
302.754	10.52
302.967	11.33
303.18	11.31
303.393	11.68
303.607	13.06
303.82	12.46
304.033	12.15
304.246	13.4
304.459	12.28
304.672	11.88
304.885	11.3
305.098	9.51
305.311	8.82
305.524	8.52
305.737	8.98
305.95	7.14
306.163	7.52
306.376	9.08
306.589	8.59
306.802	9.28
307.015	9.16
307.228	8.13
307.44	8.35
307.653	9.16
307.866	9.03
308.079	8.23
308.292	8.5
308.505	7.19
308.718	5.49
308.93	6.68
309.143	5.83
309.356	5.63
309.569	5.44
309.781	6.48
309.994	6.81
310.207	7.34
310.42	7.31
310.632	8.58
310.845	9.7
311.058	10.22
311.27	9.47
311.483	10.53
311.696	9.21
311.908	8.66
312.121	8.23
312.333	6.07
312.546	6.15
312.759	7.38
312.971	6.34
313.184	7.21
313.396	7.16
313.609	7.58
313.821	7.95
314.034	9.3
314.246	11.71
314.459	11.77
314.671	12.35
314.884	10.01
315.096	8.57
315.309	8.82
315.521	6.54
315.733	5.19
315.946	6.01
316.158	5.13
316.371	6.42
316.583	5.17
316.795	4.74
317.008	5.1
317.22	7.73
317.432	7.65
317.644	8.94
317.857	8.98
318.069	9.97
318.281	9.08
318.494	8.17
318.706	6.6
318.918	6.2
319.13	4.4
319.342	5.92
319.555	4.67
319.767	4.33
319.979	2.71
320.191	3.05
320.403	2.11
320.615	0.66
320.827	0.1
321.039	2.08
321.252	2.25
321.464	4.26
321.676	3.68
321.888	3.78
322.1	4.57
322.312	3.93
322.524	3.82
322.736	4.91
322.948	4.62
323.16	6.79
323.372	5.53
323.584	5.79
323.796	4.3
324.007	3.42
324.219	3.3
324.431	2.2
324.643	3.02
324.855	2.87
325.067	3.61
325.279	6.26
325.491	5.56
325.702	6.5
325.914	6.88
326.126	8.59
326.338	9.2
326.55	8.69
326.761	10.14
326.973	10.14
327.185	10.36
327.396	9.69
327.608	8
327.82	7.61
328.032	6.22
328.243	5.13
328.455	3.19
328.666	2.7
328.878	3.78
329.09	2.24
329.301	0.74
329.513	2.03
329.725	1.97
329.936	1.03
330.148	2.1
330.359	3.2
330.571	3.65
330.782	4.61
330.994	5.41
331.205	3.81
331.417	3.13
331.628	4.77
331.84	4.63
332.051	3.47
332.262	2.89
332.474	1.74
332.685	1.62
332.897	2.54
333.108	3.3
333.319	2.97
333.531	4.7
333.742	5.91
333.953	5.68
334.165	4.77
334.376	5.2
334.587	6.75
334.799	8.58
335.01	8.26
335.221	7.29
335.432	5.03
335.644	4.87
335.855	3.79
336.066	2.66
336.277	1.74
336.488	1.83
336.7	2.77
336.911	2.78
337.122	2.85
337.333	3.37
337.544	3.12
337.755	5.24
337.966	6.16
338.177	5.84
338.388	6.84
338.599	8.16
338.811	7.69
339.022	7.18
339.233	6.63
339.444	4.44
339.655	4.6
339.866	5.83
340.076	6.41
340.287	6.04
340.498	5.31
340.709	5.3
340.92	4.62
341.131	5.63
341.342	6.21
341.553	5.7
341.764	6.98
341.975	6.47
342.185	6.04
342.396	4.11
342.607	2.63
342.818	4.37
343.029	5.33
343.239	5.53
343.45	5.05
343.661	4.54
343.872	5.05
344.082	4
344.293	3.97
344.504	4.52
344.714	5.28
344.925	7.66
345.136	7.47
345.346	6.61
345.557	7.04
345.768	7.26
345.978	6.89
346.189	7.62
346.399	8.1
346.61	8.37
346.821	8.19
347.031	8.53
347.242	8.17
347.452	7.56
347.663	7.31
347.873	6.04
348.084	5.59
348.294	5.88
348.504	4.23
348.715	4.95
348.925	5.23
349.136	4.57
349.346	5.28
349.557	4.65
349.767	5.35
349.977	6.43
350.188	6.21
350.398	7.06
350.608	6.22
350.819	6.57
351.029	6.27
351.239	6.25
351.449	5.9
351.66	6.2
351.87	5.71
352.08	5.14
352.29	4.41
352.501	5.56
352.711	5.16
352.921	6.49
353.131	7.65
353.341	6.81
353.552	6.41
353.762	5.88
353.972	5.03
354.182	4.17
354.392	4.52
354.602	3.77
354.812	4.72
355.022	4.89
355.232	4.48
355.442	4.3
355.652	4.74
355.862	5.35
356.072	5.77
356.282	6.67
356.492	7.65
356.702	7.62
356.912	8.31
357.122	7.66
357.332	7.46
357.542	6.41
357.752	6.54
357.962	6.51
358.171	5.87
358.381	6.28
358.591	5.63
358.801	5.58
359.011	5.53
359.221	4.73
359.43	4.4
359.64	5.49
359.85	7.04
360.06	7.02
360.269	7.17
360.479	7.52
360.689	7.36
360.899	6.92
361.108	6.56
361.318	6.58
361.528	6.59
361.737	7.03
361.947	6.25
362.156	5.76
362.366	5.45
362.576	4.86
362.785	4.46
362.995	4.82
363.204	4.75
363.414	4.54
363.623	4.17
363.833	4.44
364.042	3.82
364.252	2.78
364.461	1.91
364.671	3
364.88	3.18
365.09	3.15
365.299	2.86
365.509	3.01
365.718	3.53
365.927	4.1
366.137	4.72
366.346	4.57
366.555	5.06
366.765	6.5
366.974	5.49
367.183	5.28
367.393	4.8
367.602	4.17
367.811	3.09
368.021	2.13
368.23	1.58
368.439	0.97
368.648	1.05
368.857	1.59
369.067	1.05
369.276	1.01
369.485	1.73
369.694	2.58
369.903	2.59
370.112	3.6
370.321	4.61
370.531	5.17
370.74	4.95
370.949	5.3
371.158	5.28
371.367	4.99
371.576	5.22
371.785	5.53
371.994	6.19
372.203	6.73
372.412	7.08
372.621	6.41
372.83	6.06
373.039	6.53
373.248	6.74
373.457	6.63
373.666	6.54
373.874	5.85
374.083	4.96
374.292	4.86
374.501	4.82
374.71	3.7
374.919	4.28
375.128	3.89
375.336	3.7
375.545	3.96
375.754	4.31
375.963	4.39
376.171	4.62
376.38	4.59
376.589	4.03
376.798	3.58
377.006	3.86
377.215	3.6
377.424	3.99
377.632	3.84
377.841	2.91
378.05	2.6
378.258	2.78
378.467	3.19
378.675	3.46
378.884	3.01
379.093	3.02
379.301	3.18
379.51	3.21
379.718	2.94
379.927	2.59
380.135	3.04
380.344	2.41
380.552	1.9
380.761	1.41
380.969	0.93
381.177	1.13
381.386	0.89
381.594	1.72
381.803	1.83
382.011	1.24
382.219	1.79
382.428	1.6
382.636	1.89
382.845	2.19
383.053	2.6
383.261	2.96
383.469	2.76
383.678	3.07
383.886	2.49
384.094	2.66
384.302	3.37
384.511	3
384.719	2.84
384.927	2.56
385.135	2.33
385.343	2.29
385.552	2.58
385.76	3.02
385.968	2.94
386.176	2.6
386.384	2.08
386.592	2.29
386.8	2.61
387.008	2.75
387.216	2.76
387.424	2.58
387.633	2.33
387.841	1.84
388.049	2.14
388.257	2.58
388.465	2.82
388.672	3.01
388.88	2.88
389.088	2.86
389.296	2.78
389.504	3.23
389.712	3.59
389.92	3.33
390.128	3.6
390.336	3.18
390.544	3.19
390.751	3.25
390.959	3.27
391.167	3.04
391.375	2.51
391.583	2.72
391.79	2.49
391.998	2.56
392.206	3.05
392.414	3.3
392.621	3.21
392.829	2.89
393.037	2.72
393.244	2.67
393.452	2.83
393.66	3.12
393.867	3.18
394.075	3.32
394.283	2.81
394.49	2.6
394.698	2.2
394.905	2.14
395.113	2.03
395.32	2
395.528	2.19
395.735	2.1
395.943	2.46
396.15	1.94
396.358	1.9
396.565	2.2
396.773	2
396.98	2.13
397.188	1.95
397.395	2.22
397.602	2.6
397.81	2.34
398.017	2.18
398.225	1.53
398.432	1.46
398.639	1.51
398.847	1.57
399.054	1.53
399.261	1.56
399.468	1.96
399.676	1.67
399.883	1.29
400.09	1.21
400.297	1.39
400.505	1.55
400.712	1.82
400.919	1.56
401.126	1.91
401.333	1.79
401.54	1.51
401.748	1.28
401.955	1.38
402.162	1.23
402.369	1.35
402.576	1.47
402.783	1.67
402.99	1.56
403.197	1.7
403.404	1.36
403.611	1.68
403.818	1.92
404.025	2.04
404.232	2.38
404.439	2.61
404.646	2.7
404.853	2.63
405.06	2.89
405.267	2.97
405.474	2.74
405.681	2.64
405.887	2.64
406.094	2.64
406.301	2.6
406.508	2.36
406.715	2.05
406.922	1.99
407.128	1.89
407.335	1.48
407.542	1.85
407.749	1.96
407.955	2.24
408.162	2.02
408.369	1.69
408.575	1.64
408.782	1.61
408.989	1.76
409.195	1.57
409.402	1.58
409.609	1.59
409.815	1.33
410.022	1.43
410.228	1.37
410.435	1.27
410.642	1.51
410.848	1.8
411.055	1.66
411.261	1.89
411.468	1.84
411.674	1.98
411.881	1.97
412.087	1.87
412.294	1.93
412.5	1.55
412.706	1.6
412.913	1.78
413.119	1.13
413.326	1.25
413.532	1.13
413.738	0.99
413.945	1.04
414.151	1.11
414.357	1.34
414.564	1.3
414.77	1.44
414.976	1.67
415.182	1.19
415.389	1.17
415.595	1.23
415.801	1.18
416.007	1.32
416.214	1.07
416.42	0.79
416.626	0.63
416.832	0.48
417.038	0.71
417.244	0.57
417.45	0.8
417.657	1.04
417.863	1.07
418.069	1.23
418.275	1.49
418.481	1.67
418.687	1.77
418.893	1.76
419.099	1.88
419.305	1.69
419.511	1.85
419.717	1.88
419.923	1.84
420.129	1.68
420.335	1.57
420.541	1.44
420.746	1.32
420.952	1.2
421.158	1.19
421.364	1.21
421.57	1.3
421.776	1.17
421.982	1.18
422.187	1.23
422.393	1.26
422.599	1.34
422.805	1.43
423.01	1.46
423.216	1.66
423.422	1.78
423.628	1.77
423.833	1.8
424.039	1.75
424.245	1.76
424.45	1.69
424.656	1.72
424.862	1.69
425.067	1.77
425.273	1.79
425.478	1.88
425.684	1.7
425.889	1.62
426.095	1.63
426.301	1.82
426.506	1.83
426.712	1.84
426.917	1.68
427.123	1.55
427.328	1.22
427.533	1.06
427.739	0.87
427.944	0.99
428.15	1.1
428.355	0.77
428.561	0.71
428.766	0.5
428.971	0.51
429.177	0.97
429.382	0.96
429.587	0.92
429.793	1
429.998	1.06
430.203	1.05
430.408	1.12
430.614	1.34
430.819	1.16
431.024	1.15
431.229	1.13
431.434	0.98
431.64	0.82
431.845	1
432.05	0.99
432.255	0.99
432.46	1.16
432.665	1.02
432.87	0.98
433.076	1.11
433.281	1.17
433.486	1.23
433.691	1.07
433.896	1.22
434.101	1.29
434.306	1.21
434.511	1.1
434.716	0.74
434.921	0.81
435.126	0.97
435.331	0.83
435.535	0.68
435.74	0.81
435.945	0.8
436.15	0.8
436.355	0.81
436.56	0.96
436.765	0.89
436.97	1.14
437.174	1.22
437.379	1.08
437.584	1.11
437.789	1.32
437.993	1.1
438.198	1.18
438.403	1.24
438.608	1.03
438.812	0.92
439.017	0.89
439.222	1.02
439.426	0.94
439.631	0.98
439.836	1.18
440.04	1.22
440.245	1.16
440.45	1.14
440.654	1.12
440.859	1.18
441.063	1.25
441.268	1.4
441.472	1.2
441.677	1.23
441.881	1.35
442.086	1.13
442.29	1.07
442.495	1.27
442.699	1.32
442.904	1.36
443.108	1.41
443.312	1.31
443.517	1.26
443.721	1.3
443.925	1.24
444.13	1.08
444.334	1.21
444.538	1.16
444.743	1.08
444.947	1.1
445.151	1
445.356	1.02
445.56	1.09
445.764	1.21
445.968	1.2
446.173	1.21
446.377	1.19
446.581	1.02
446.785	0.96
446.989	0.91
447.193	0.9
447.398	1.02
447.602	1.08
447.806	0.94
448.01	0.84
448.214	0.86
448.418	0.82
448.622	0.81
448.826	0.99
449.03	1.1
449.234	1.12
449.438	1.1
449.642	1.03
449.846	1.05
450.05	1.1
450.254	1.05
450.458	1.13
450.662	1.11
450.866	1.04
451.069	0.98
451.273	1.08
451.477	1.3
451.681	1.29
451.885	1.28
452.089	0.99
452.292	1.25
452.496	1.18
452.7	0.91
452.904	1
453.107	1.06
453.311	1.03
453.515	0.73
453.719	0.41
453.922	0.38
454.126	0.39
454.33	0.4
454.533	0.19
454.737	0.38
454.94	0.65
455.144	0.59
455.348	0.56
455.551	0.69
455.755	0.83
455.958	0.96
456.162	1.09
456.365	1.09
456.569	1.35
456.772	1.34
456.976	1.15
457.179	1.15
457.383	1.14
457.586	1.39
457.79	1.42
457.993	1.6
458.196	1.67
458.4	1.58
458.603	1.5
458.807	1.24
459.01	1.32
459.213	1.44
459.417	1.38
459.62	1.29
459.823	1.1
460.026	1.05
460.23	0.9
460.433	0.81
460.636	0.79
460.839	0.8
461.042	0.91
461.246	0.87
461.449	0.85
461.652	0.85
461.855	1.09
462.058	1.22
462.261	1.21
462.464	1.45
462.668	1.44
462.871	1.45
463.074	1.54
463.277	1.48
463.48	1.61
463.683	1.6
463.886	1.59
464.089	1.79
464.292	1.6
464.495	1.44
464.698	1.44
464.901	1.39
465.104	1.56
465.306	1.59
465.509	1.82
465.712	1.64
465.915	1.62
466.118	1.62
466.321	1.24
466.524	1.25
466.726	1.42
466.929	1.2
467.132	1.23
467.335	1.11
467.538	0.85
467.74	0.72
467.943	0.77
468.146	0.69
468.348	0.69
468.551	0.59
468.754	0.38
468.956	0.38
469.159	0.43
469.362	0.4
469.564	0.18
469.767	0.25
469.969	0.57
470.172	0.69
470.375	0.79
470.577	0.5
470.78	0.8
470.982	1.11
471.185	1.07
471.387	0.91
471.59	0.94
471.792	1.31
471.995	1.41
472.197	1.27
472.399	1.14
472.602	1.11
472.804	1.44
473.007	1.14
473.209	1.06
473.411	0.85
473.614	1.06
473.816	1.05
474.018	0.77
474.22	0.83
474.423	0.68
474.625	0.72
474.827	0.7
475.03	0.71
475.232	0.93
475.434	0.93
475.636	1.26
475.838	1.16
476.04	1.42
476.243	1.75
476.445	1.86
476.647	1.74
476.849	1.96
477.051	1.93
477.253	1.78
477.455	1.68
477.657	1.71
477.859	1.45
478.061	1.53
478.263	1.31
478.465	1.18
478.667	1.04
478.869	1.26
479.071	1.04
479.273	1.03
479.475	1.13
479.677	1.13
479.879	1.2
480.081	1.44
480.283	1.46
480.485	1.56
480.686	1.43
480.888	1.5
481.09	1.28
481.292	1.22
481.494	1.39
481.695	1.31
481.897	1.28
482.099	1.19
482.301	1.11
482.502	0.99
482.704	0.98
482.906	1.01
483.107	1
483.309	1.01
483.511	1
483.712	1.03
483.914	1.01
484.115	1.04
484.317	1.06
484.519	1.04
484.72	1.07
484.922	1.01
485.123	0.94
485.325	0.88
485.526	0.88
485.728	0.9
485.929	0.8
486.131	0.82
486.332	0.87
486.534	0.84
486.735	0.9
486.936	0.86
487.138	0.96
487.339	1.01
487.541	1.02
487.742	0.99
487.943	0.94
488.144	0.91
488.346	0.9
488.547	0.88
488.748	0.9
488.95	0.84
489.151	0.83
489.352	0.79
489.553	0.76
489.755	0.8
489.956	0.81
490.157	0.87
490.358	1.02
490.559	1.06
490.76	0.92
490.961	0.94
491.163	1
491.364	1.16
491.565	1.18
491.766	1.23
491.967	1.23
492.168	1.32
492.369	1.31
492.57	1.23
492.771	1.25
492.972	1.38
493.173	1.36
493.374	1.39
493.575	1.34
493.776	1.41
493.976	1.44
494.177	1.55
494.378	1.54
494.579	1.56
494.78	1.58
494.981	1.69
495.182	1.72
495.382	1.65
495.583	1.46
495.784	1.46
495.985	1.34
496.185	1.41
496.386	1.21
496.587	1.19
496.788	1.24
496.988	1.4
497.189	1.27
497.39	1.29
497.59	1.31
497.791	1.43
497.992	1.38
498.192	1.49
498.393	1.51
498.593	1.56
498.794	1.61
498.994	1.56
499.195	1.41
499.395	1.38
499.596	1.36
499.796	1.27
499.997	1.24
500.197	1.2
500.398	1.15
500.598	0.94
500.799	0.96
500.999	1.02
501.199	1.1
501.4	1.08
501.6	1.08
501.801	0.92
502.001	1.07
502.201	1.05
502.402	1.27
502.602	1.39
502.802	1.46
503.002	1.38
503.203	1.21
503.403	1.27
503.603	1.14
503.803	1.17
504.003	1.08
504.204	1.06
504.404	1.24
504.604	0.98
504.804	0.89
505.004	1.05
505.204	1.2
505.404	1.25
505.604	1.11
505.804	1.22
506.005	1.21
506.205	1.36
506.405	1.5
506.605	1.25
506.805	1.37
507.005	1.29
507.204	1.19
507.404	1.09
507.604	1.08
507.804	1.09
508.004	1.1
508.204	1.05
508.404	1.1
508.604	1.09
508.804	1.15
509.003	1.12
509.203	1.13
509.403	1.22
509.603	1.29
509.803	1.18
510.002	1.23
510.202	1.38
510.402	1.62
510.602	1.71
510.801	1.64
511.001	1.7
511.201	1.67
511.4	1.65
511.6	1.68
511.8	1.59
511.999	1.7
512.199	1.7
512.398	1.53
512.598	1.31
512.797	1.36
512.997	1.43
513.197	1.45
513.396	1.54
513.596	1.51
513.795	1.34
513.994	1.21
514.194	1.27
514.393	1.17
514.593	1.26
514.792	1.16
514.992	0.98
515.191	0.99
515.39	0.87
515.59	0.77
515.789	0.92
515.988	0.91
516.188	1.18
516.387	1.15
516.586	1.35
516.786	1.42
516.985	1.48
517.184	1.36
517.383	1.36
517.582	1.38
517.782	1.5
517.981	1.46
518.18	1.52
518.379	1.43
518.578	1.41
518.777	1.36
518.976	1.31
519.176	1.47
519.375	1.6
519.574	1.6
519.773	1.62
519.972	1.51
520.171	1.5
520.37	1.59
520.569	1.61
520.768	1.72
520.967	1.66
521.166	1.6
521.365	1.52
521.564	1.39
521.762	1.32
521.961	1.23
522.16	1.33
522.359	1.24
522.558	0.98
522.757	1.07
522.956	0.88
523.154	1.09
523.353	1.32
523.552	1.33
523.751	1.35
523.949	1.38
524.148	1.65
524.347	1.56
524.546	1.64
524.744	1.82
524.943	1.72
525.142	1.74
525.34	1.7
525.539	1.59
525.737	1.57
525.936	1.63
526.135	1.66
526.333	1.64
526.532	1.79
526.73	1.78
526.929	1.77
527.127	1.84
527.326	1.84
527.524	1.73
527.723	1.7
527.921	1.74
528.12	1.67
528.318	1.65
528.516	1.59
528.715	1.53
528.913	1.59
529.112	1.56
529.31	1.54
529.508	1.58
529.707	1.67
529.905	1.71
530.103	1.72
530.301	1.73
530.5	1.79
530.698	1.83
530.896	1.86
531.094	1.78
531.293	1.89
531.491	1.94
531.689	1.91
531.887	1.81
532.085	1.8
532.283	1.85
532.481	1.98
532.68	1.9
532.878	1.83
533.076	1.87
533.274	2
533.472	2.01
533.67	2.08
533.868	2.17
534.066	2.17
534.264	2.18
534.462	2.12
534.66	2.07
534.858	2.16
535.056	2.23
535.253	2.12
535.451	2.03
535.649	1.92
535.847	1.79
536.045	1.77
536.243	1.78
536.441	1.75
536.638	1.82
536.836	1.92
537.034	1.89
537.232	1.89
537.43	2.1
537.627	2.14
537.825	2.31
538.023	2.34
538.22	2.34
538.418	2.49
538.616	2.48
538.813	2.36
539.011	2.34
539.209	2.36
539.406	2.4
539.604	2.41
539.801	2.39
539.999	2.31
540.196	2.38
540.394	2.4
540.591	2.45
540.789	2.51
540.986	2.6
541.184	2.55
541.381	2.55
541.579	2.56
541.776	2.54
541.974	2.6
542.171	2.61
542.368	2.58
542.566	2.53
542.763	2.46
542.96	2.45
543.158	2.45
543.355	2.6
543.552	2.69
543.75	2.71
543.947	2.67
544.144	2.57
544.341	2.6
544.539	2.64
544.736	2.74
544.933	2.95
545.13	3.01
545.327	3.03
545.524	2.99
545.722	2.99
545.919	3.03
546.116	3.15
546.313	3.21
546.51	3.15
546.707	3.27
546.904	3.17
547.101	3.02
547.298	3.05
547.495	3.1
547.692	3.11
547.889	3.14
548.086	3.23
548.283	3.18
548.48	3.36
548.677	3.55
548.874	3.55
549.07	3.75
549.267	3.94
549.464	4.04
549.661	4.08
549.858	4.18
550.055	4.14
550.251	4.14
550.448	4.33
550.645	4.22
550.842	4.23
551.038	4.3
551.235	4.48
551.432	4.29
551.628	4.32
551.825	4.17
552.022	4.08
552.218	4.12
552.415	4.15
552.612	4.2
552.808	4.17
553.005	4.35
553.201	4.43
553.398	4.48
553.594	4.57
553.791	4.57
553.987	4.7
554.184	4.65
554.38	4.82
554.577	4.86
554.773	4.79
554.97	4.82
555.166	4.76
555.362	4.61
555.559	4.38
555.755	4.53
555.952	4.6
556.148	4.72
556.344	4.91
556.541	4.7
556.737	4.68
556.933	4.45
557.129	4.61
557.326	4.62
557.522	4.94
557.718	5.06
557.914	5.04
558.11	4.88
558.307	4.83
558.503	4.88
558.699	5.02
558.895	5.09
559.091	5.33
559.287	5.28
559.483	5.15
559.679	4.96
559.876	5.02
560.072	4.93
560.268	5.23
560.464	5.35
560.66	5.42
560.856	5.61
561.052	5.51
561.247	5.51
561.443	5.65
561.639	5.73
561.835	5.72
562.031	5.81
562.227	5.93
562.423	5.93
562.619	5.76
562.815	5.86
563.01	5.57
563.206	5.63
563.402	5.75
563.598	5.77
563.793	5.76
563.989	5.79
564.185	5.82
564.381	5.92
564.576	5.79
564.772	6.01
564.968	5.89
565.163	6.31
565.359	6.59
565.555	6.63
565.75	6.82
565.946	6.87
566.141	7.03
566.337	6.98
566.532	7.05
566.728	7.13
566.923	7.06
567.119	7.21
567.314	7.05
567.51	6.93
567.705	7.12
567.901	7
568.096	6.92
568.292	6.79
568.487	6.72
568.682	6.63
568.878	6.71
569.073	6.88
569.268	6.85
569.464	7.02
569.659	7.06
569.854	6.91
570.05	6.94
570.245	7.2
570.44	7.27
570.635	7.48
570.831	7.55
571.026	7.47
571.221	7.4
571.416	7.42
571.611	7.28
571.806	7.4
572.002	7.3
572.197	7.39
572.392	7.45
572.587	7.61
572.782	7.71
572.977	7.72
573.172	7.95
573.367	8.08
573.562	8.03
573.757	8.36
573.952	8.26
574.147	8.34
574.342	8.26
574.537	8.18
574.732	8.13
574.927	8.2
575.121	8.19
575.316	8.21
575.511	8.06
575.706	8.26
575.901	8.1
576.096	8.26
576.29	8.39
576.485	8.34
576.68	8.45
576.875	8.53
577.069	8.58
577.264	8.68
577.459	8.58
577.654	8.78
577.848	8.83
578.043	8.85
578.238	8.85
578.432	8.98
578.627	9.05
578.821	9
579.016	8.98
579.21	8.67
579.405	8.72
579.6	8.62
579.794	8.65
579.989	8.63
580.183	8.47
580.378	8.38
580.572	8.04
580.766	7.94
580.961	8.02
581.155	8.22
581.35	8.31
581.544	8.36
581.738	8.6
581.933	8.69
582.127	8.62
582.321	8.76
582.516	8.91
582.71	9.15
582.904	9.57
583.099	9.72
583.293	9.64
583.487	9.75
583.681	9.67
583.875	9.8
584.07	9.85
584.264	9.87
584.458	10
584.652	9.99
584.846	9.88
585.04	9.87
585.234	9.74
585.428	9.5
585.623	9.61
585.817	9.64
586.011	9.44
586.205	9.16
586.399	9.14
586.593	9.07
586.787	8.8
586.981	8.95
587.174	8.96
587.368	8.93
587.562	9.17
587.756	9.13
587.95	9.19
588.144	9.49
588.338	9.74
588.532	9.75
588.725	9.84
588.919	10.24
589.113	9.96
589.307	9.68
589.501	9.95
589.694	9.75
589.888	9.72
590.082	9.69
590.275	9.66
590.469	9.52
590.663	9.56
590.856	9.36
591.05	9.31
591.244	9.47
591.437	9.75
591.631	9.55
591.824	9.64
592.018	9.59
592.212	9.41
592.405	9.27
592.599	9.27
592.792	9.13
592.986	9.22
593.179	9.14
593.372	9.13
593.566	9.36
593.759	9.22
593.953	9.34
594.146	9.34
594.339	9.8
594.533	9.68
594.726	9.82
594.92	10.01
595.113	9.88
595.306	9.66
595.499	9.95
595.693	9.77
595.886	10.01
596.079	9.97
596.272	9.99
596.466	9.87
596.659	9.78
596.852	9.75
597.045	9.8
597.238	9.89
597.431	10.25
597.624	9.98
597.818	9.92
598.011	9.86
598.204	9.77
598.397	10
598.59	9.9
598.783	10.08
598.976	10.08
599.169	9.84
599.362	10.1
599.555	9.91
599.748	9.91
599.941	9.75
600.134	9.68
600.326	9.94
600.519	9.7
600.712	9.38
600.905	9.53
601.098	9.54
601.291	9.86
601.483	9.7
601.676	9.81
601.869	10.08
602.062	10.22
602.255	10.35
602.447	10.26
602.64	10.29
602.833	10.4
603.025	10.5
603.218	10.63
603.411	10.41
603.603	10.42
603.796	10.27
603.989	10.11
604.181	10.1
604.374	10.23
604.566	10.23
604.759	10.32
604.951	10.4
605.144	10.27
605.336	10.29
605.529	10.3
605.721	10.38
605.914	10.43
606.106	10.55
606.299	10.57
606.491	10.47
606.683	10.45
606.876	10.26
607.068	10.27
607.26	10.07
607.453	9.91
607.645	9.98
607.837	9.98
608.03	10.17
608.222	10.12
608.414	10.13
608.606	9.95
608.799	9.84
608.991	9.83
609.183	9.99
609.375	10.11
609.567	9.95
609.759	9.87
609.952	9.76
610.144	9.73
610.336	9.79
610.528	9.6
610.72	9.74
610.912	9.92
611.104	10.08
611.296	9.82
611.488	9.88
611.68	10.1
611.872	10.42
612.064	10.34
612.256	10.19
612.448	10.14
612.64	10.46
612.832	10.25
613.023	10.07
613.215	10.05
613.407	10.21
613.599	10.03
613.791	9.78
613.983	9.67
614.174	9.64
614.366	9.61
614.558	9.76
614.75	9.39
614.941	9.56
615.133	9.86
615.325	9.6
615.516	9.96
615.708	10.1
615.9	10.32
616.091	9.91
616.283	10.18
616.475	10.24
616.666	10.09
616.858	10.41
617.049	10.27
617.241	10.02
617.432	10.33
617.624	9.97
617.815	10.19
618.007	10.31
618.198	10.44
618.39	10.27
618.581	10.19
618.773	10.09
618.964	10.22
619.155	10.51
619.347	10.39
619.538	10.21
619.729	10.22
619.921	9.63
620.112	9.69
620.303	9.56
620.494	9.51
620.686	9.42
620.877	9.34
621.068	9.17
621.259	9.04
621.451	9.28
621.642	9.18
621.833	9.13
622.024	9.2
622.215	8.99
622.406	9.23
622.597	9.45
622.788	10.01
622.98	10.29
623.171	10.1
623.362	10.18
623.553	10.22
623.744	10.22
623.935	10.36
624.126	10.77
624.317	10.88
624.508	10.86
624.698	10.76
624.889	10.37
625.08	10.65
625.271	10.57
625.462	10.4
625.653	10.14
625.844	10.26
626.034	10.49
626.225	10.1
626.416	10.16
626.607	10.4
626.798	10.43
626.988	10.35
627.179	10.01
627.37	10.27
627.56	10.36
627.751	10.37
627.942	10.5
628.132	10.25
628.323	10.5
628.514	10.18
628.704	9.93
628.895	10.09
629.085	10.18
629.276	10.12
629.466	10.48
629.657	10.49
629.847	10.78
630.038	10.64
630.228	10.66
630.419	10.72
630.609	10.78
630.8	10.51
630.99	10.38
631.181	10.63
631.371	11.09
631.561	10.34
631.752	10.26
631.942	10.14
632.132	10.19
632.323	10.02
632.513	9.83
632.703	9.76
632.893	10
633.084	9.85
633.274	9.83
633.464	9.34
633.654	9.87
633.844	9.87
634.034	9.86
634.225	9.79
634.415	9.83
634.605	10
634.795	10
634.985	9.99
635.175	10.16
635.365	10.15
635.555	10.32
635.745	10.08
635.935	10.12
636.125	9.7
636.315	9.54
636.505	10.07
636.695	9.92
636.885	9.68
637.075	9.69
637.265	9.6
637.455	9.75
637.644	9.48
637.834	9.5
638.024	9.13
638.214	9.77
638.404	9.95
638.593	9.65
638.783	9.71
638.973	10.21
639.163	10.64
639.352	10.49
639.542	9.93
639.732	9.95
639.921	10.01
640.111	10.14
640.301	9.55
640.49	9.84
640.68	9.53
640.87	9.96
641.059	10.05
641.249	9.63
641.438	9.7
641.628	10.29
641.817	10.5
642.007	10.34
642.196	10.47
642.386	10.77
642.575	10.09
642.764	10.5
642.954	9.95
643.143	10.02
643.333	10.15
643.522	9.86
643.711	9.35
643.901	9.36
644.09	9.53
644.279	9.78
644.469	10.3
644.658	10.78
644.847	10.58
645.036	10.67
645.226	10.64
645.415	10.34
645.604	10.67
645.793	10.74
645.982	10.96
646.171	10.96
646.361	10.76
646.55	10.15
646.739	10.18
646.928	10.05
647.117	10.23
647.306	10.22
647.495	10.54
647.684	10.47
647.873	10.12
648.062	10.13
648.251	10.08
648.44	10.07
648.629	10.37
648.818	10.27
649.007	10.06
649.196	10.01
649.384	9.93
649.573	10.3
649.762	10.53
649.951	10.61
650.14	10.57
650.328	10.54
650.517	10.8
650.706	10.4
650.895	10.43
651.083	10.5
651.272	10.38
651.461	10.77
651.65	10.33
651.838	10.04
652.027	9.99
652.216	10.23
652.404	10.24
652.593	10.04
652.781	10.26
652.97	9.97
653.158	9.79
653.347	9.97
653.535	9.94
653.724	9.68
653.912	9.39
654.101	10.01
654.289	9.83
654.478	9.66
654.666	9.56
654.855	9.37
655.043	9.62
655.231	9.95
655.42	9.65
655.608	9.1
655.796	9.47
655.985	10.13
656.173	9.71
656.361	9.68
656.55	9.97
656.738	10.1
656.926	10.48
657.114	10.49
657.302	10.69
657.491	10.84
657.679	11
657.867	11.28
658.055	10.89
658.243	10.96
658.431	11.02
658.619	10.88
658.807	10.95
658.996	10.74
659.184	10.98
659.372	11.21
659.56	11.55
659.748	11.47
659.936	11.24
660.124	11.78
660.311	11.99
660.499	12
660.687	12.06
660.875	11.72
661.063	12.03
661.251	11.75
661.439	11.5
661.627	11.1
661.814	11.03
662.002	10.42
662.19	9.79
662.378	9.49
662.565	9.25
662.753	9.01
662.941	8.97
663.129	8.65
663.316	8.61
663.504	8.54
663.692	8.98
663.879	8.79
664.067	9.58
664.254	9.78
664.442	9.72
664.63	9.75
664.817	10.25
665.005	10.44
665.192	10.7
665.38	10.89
665.567	10.65
665.755	10.55
665.942	10.84
666.13	10.52
666.317	10.84
666.504	10.85
666.692	10.44
666.879	10.18
667.067	10.49
667.254	10.3
667.441	10.43
667.629	10.23
667.816	9.71
668.003	9.82
668.19	9.92
668.378	9.99
668.565	10.07
668.752	10.81
668.939	10.75
669.127	10.66
669.314	10.48
669.501	10.03
669.688	10.53
669.875	11.19
670.062	10.91
670.249	10.64
670.436	10.45
670.623	10.73
670.81	10.5
670.997	10.6
671.184	10.68
671.371	10.99
671.558	10.97
671.745	11.06
671.932	10.57
672.119	10.78
672.306	11.16
672.493	10.96
672.68	10.9
672.867	10.88
673.054	10.81
673.24	10.77
673.427	10.45
673.614	10.72
673.801	10.67
673.988	10.61
674.174	10.81
674.361	11.12
674.548	11.29
674.734	11.39
674.921	11.84
675.108	11.61
675.294	11.23
675.481	11.09
675.668	11.45
675.854	11.3
676.041	11.12
676.227	10.84
676.414	10.55
676.601	11.22
676.787	10.92
676.974	10.56
677.16	10.61
677.347	11.07
677.533	11.35
677.719	10.8
677.906	11.21
678.092	11.14
678.279	11.01
678.465	10.85
678.651	10.39
678.838	10.7
679.024	10.57
679.21	10.62
679.397	10.57
679.583	10.46
679.769	10.77
679.955	10.4
680.142	10.66
680.328	10.71
680.514	10.95
680.7	10.49
680.886	10.76
681.073	10.47
681.259	10.49
681.445	10.34
681.631	10.48
681.817	10.46
682.003	10.67
682.189	10.62
682.375	10.92
682.561	10.51
682.747	10.84
682.933	10.28
683.119	10.85
683.305	11.1
683.491	11.09
683.677	11.03
683.863	10.79
684.049	10.8
684.235	10.64
684.42	10.15
684.606	9.91
684.792	10.07
684.978	9.69
685.164	9.12
685.349	8.59
685.535	8.54
685.721	9.02
685.907	8.6
686.092	8.58
686.278	9.05
686.464	9.28
686.649	9.68
686.835	9.25
687.021	9.72
687.206	9.74
687.392	10.27
687.577	10.49
687.763	10.06
687.948	10.68
688.134	10.67
688.319	10.72
688.505	10.8
688.69	10.87
688.876	11.57
689.061	12.12
689.247	12.02
689.432	11.5
689.618	11.52
689.803	11.73
689.988	11.55
690.174	11.74
690.359	10.85
690.544	10.78
690.73	10.92
690.915	10.82
691.1	10.49
691.285	11.18
691.471	11.38
691.656	11.06
691.841	11.1
692.026	11.45
692.211	10.87
692.396	11.8
692.582	11.29
692.767	11.37
692.952	11.13
693.137	10.96
693.322	10.16
693.507	9.95
693.692	10.3
693.877	10.02
694.062	10.1
694.247	10.49
694.432	10.25
694.617	10.82
694.802	10.19
694.987	10.4
695.172	10.08
695.357	10.44
695.541	11.39
695.726	11.69
695.911	11.87
696.096	11.63
696.281	11.34
696.466	11.44
696.65	11.13
696.835	11.28
697.02	10.95
697.204	10.85
697.389	11
697.574	10.6
697.759	10.47
697.943	10.27
698.128	9.97
698.312	9.89
698.497	9.63
698.682	10.23
698.866	10.23
699.051	10.16
699.235	10.27
699.42	10.41
699.604	10.31
699.789	10.25
699.973	10.57
700.158	10.67
700.342	10.88
700.527	11
700.711	10.92
700.895	11.25
701.08	11.3
701.264	11.48
701.448	11.2
701.633	11.69
701.817	11.48
702.001	11.64
702.186	12.1
702.37	11.93
702.554	12.3
702.738	12.07
702.923	11.22
703.107	11.53
703.291	11.06
703.475	11.39
703.659	11.07
703.843	11.22
704.027	10.09
704.212	9.8
704.396	9.93
704.58	9.84
704.764	9.69
704.948	10.59
705.132	10.43
705.316	11.18
705.5	10.84
705.684	10.7
705.868	10.38
706.052	11.14
706.235	10.93
706.419	10.97
706.603	10.55
706.787	10.94
706.971	11.45
707.155	11.26
707.339	11.46
707.522	11.83
707.706	11.67
707.89	12.25
708.074	12.09
708.257	11.99
708.441	12.09
708.625	12.01
708.808	11.7
708.992	10.85
709.176	10.88
709.359	10.32
709.543	9.92
709.727	10.07
709.91	10.03
710.094	10.12
710.277	10.22
710.461	10.17
710.644	9.64
710.828	9.15
711.011	10.03
711.195	9.83
711.378	10.53
711.562	11.48
711.745	11.33
711.928	10.79
712.112	10.59
712.295	10.95
712.478	10.73
712.662	11.87
712.845	12.25
713.028	11.18
713.212	12
713.395	11.53
713.578	10.4
713.761	11
713.945	11.01
714.128	11.26
714.311	11
714.494	11.14
714.677	11.01
714.86	11.2
715.043	11.91
715.227	10.5
715.41	10.55
715.593	11.13
715.776	10.24
715.959	10.35
716.142	10.53
716.325	10.64
716.508	10.8
716.691	10.66
716.874	10.33
717.057	9.46
717.239	10.4
717.422	10.39
717.605	9.92
717.788	11.22
717.971	12.17
718.154	12.01
718.337	11.89
718.519	11.51
718.702	11.36
718.885	11.49
719.068	11.73
719.25	11.39
719.433	11.5
719.616	11.11
719.798	11.91
719.981	11.35
720.164	11.71
720.346	10.98
720.529	11.8
720.712	12.12
720.894	11.56
721.077	12.17
721.259	12.19
721.442	11.12
721.624	11.5
721.807	9.58
721.989	8.85
722.172	8
722.354	9.43
722.537	8.08
722.719	7.02
722.901	7.85
723.084	7.62
723.266	7.8
723.448	8.32
723.631	9.32
723.813	10.49
723.995	11.32
724.178	11.03
724.36	10.21
724.542	9.91
724.724	10.16
724.907	10.2
725.089	10.57
725.271	11.5
725.453	11.55
725.635	10.59
725.817	9.02
725.999	8.73
726.181	8.77
726.364	8.63
726.546	9.8
726.728	10.16
726.91	9.59
727.092	10.15
727.274	8.79
727.456	8.91
727.638	10.46
727.819	10.59
728.001	10.45
728.183	11.81
728.365	12.79
728.547	12.52
728.729	12.72
728.911	13.21
729.093	12.62
729.274	13.08
729.456	12.77
729.638	12.75
729.82	13.39
730.001	13.77
730.183	13.26
730.365	12.33
730.546	12.61
730.728	13.39
730.91	12.94
731.091	12.55
731.273	12.05
731.455	12.39
731.636	10.95
731.818	11.13
731.999	10.31
732.181	9.31
732.362	9.71
732.544	9.64
732.725	8.39
732.907	9.39
733.088	9.36
733.27	10.4
733.451	9.85
733.633	10.14
733.814	9.39
733.995	10.25
734.177	11.29
734.358	10.94
734.539	11.34
734.721	12.38
734.902	11.62
735.083	11.71
735.264	11.94
735.446	12.17
735.627	11.55
735.808	12.6
735.989	11.67
736.17	12.2
736.351	13.27
736.533	13.32
736.714	12.51
736.895	12.98
737.076	13.41
737.257	12.96
737.438	12.43
737.619	12.69
737.8	11.8
737.981	12.67
738.162	12.22
738.343	11.48
738.524	11.65
738.705	12.69
738.886	12.62
739.067	11.91
739.247	11.18
739.428	11.93
739.609	11.72
739.79	12.12
739.971	11.75
740.151	10.48
740.332	10.87
740.513	9.69
740.694	7.02
740.874	7.02
741.055	8.19
741.236	8.65
741.417	8.19
741.597	7.51
741.778	6.48
741.958	6.95
742.139	8.49
742.32	6.96
742.5	7.38
742.681	9.26
742.861	8.2
743.042	7.24
743.222	7.45
743.403	8.54
743.583	8.75
743.764	9.31
743.944	9.5
744.124	10.04
744.305	12.21
744.485	11.87
744.666	11.68
744.846	10.76
745.026	11.23
745.207	11.15
745.387	10.22
745.567	11.26
745.747	10.5
745.928	8.45
746.108	7.24
746.288	6.76
746.468	7.5
746.648	6.42
746.829	8.49
747.009	7.98
747.189	7.83
747.369	7.75
747.549	8.32
747.729	9.23
747.909	11.73
748.089	12.01
748.269	11.16
748.449	10.02
748.629	10.98
748.809	9.26
748.989	10.01
749.169	8.63
749.349	8.24
749.529	7.67
749.709	7.05
749.889	5.63
750.068	5.18
750.248	5.92
750.428	6.03
750.608	5.23
750.788	7.96
750.967	7.68
751.147	8.6
751.327	10.3
751.507	10.2
751.686	11.13
751.866	11.11
752.046	11.45
752.225	10.44
752.405	11.39
752.585	12.46
752.764	10.17
752.944	9.73
753.123	10.38
753.303	10.56
753.482	10.72
753.662	9.83
753.841	10.84
754.021	10.22
754.2	11.8
754.38	12.72
754.559	14.07
754.739	15.38
754.918	15.49
755.097	15.23
755.277	13.85
755.456	14.21
755.635	15.3
755.815	13.44
755.994	13.9
756.173	11.93
756.352	10.73
756.532	8.65
756.711	7.53
756.89	9.23
757.069	10.72
757.248	12.01
757.427	11.5
757.607	10.36
757.786	11.1
757.965	10.94
758.144	12.2
758.323	12.73
758.502	14.09
758.681	15
758.86	13.66
759.039	12.58
759.218	11.68
759.397	11.05
759.576	12.05
759.755	13.1
759.934	13.37
760.113	13.3
760.291	11.87
760.47	11.3
760.649	10.26
760.828	7.9
761.007	7.21
761.186	8.05
761.364	8.77
761.543	8.62
761.722	8.74
761.901	8.25
762.079	8.09
762.258	9.41
762.437	8.87
762.615	9.52
762.794	10.82
762.972	11.58
763.151	11.36
763.33	11.2
763.508	11.52
763.687	11.8
763.865	12.15
764.044	12.28
764.222	11.7
764.401	11.95
764.579	11.8
764.758	11.43
764.936	11.59
765.114	11.79
765.293	12.58
765.471	12.73
765.65	13.1
765.828	13.1
766.006	13.47
766.184	12.96
766.363	13.18
766.541	14.19
766.719	15.2
766.898	14.98
767.076	13.46
767.254	12.59
767.432	11.58
767.61	10.73
767.788	10.91
767.967	12.43
768.145	14.56
768.323	14.57
768.501	13.93
768.679	15.32
768.857	13.82
769.035	15.8
769.213	16.61
769.391	16.95
769.569	15.73
769.747	15.46
769.925	13.12
770.103	13.4
770.281	13.32
770.459	13.85
770.636	12.49
770.814	12.95
770.992	13.38
771.17	11.67
771.348	13.49
771.525	14.75
771.703	14.09
771.881	14.82
772.059	13.38
772.236	13.8
772.414	12.55
772.592	13.06
772.769	15.95
772.947	13.9
773.125	15.88
773.302	12.26
773.48	11.87
773.657	12.19
773.835	12.16
774.013	13.49
774.19	13.44
774.368	12.84
774.545	12.8
774.723	11.18
774.9	14.95
775.077	12.86
775.255	14.74
775.432	14.63
775.61	15
775.787	13.45
775.964	9.34
776.142	10.08
776.319	11.6
776.496	11.65
776.674	11.76
776.851	10.33
777.028	10.79
777.205	9.57
777.382	8.85
777.56	8.08
777.737	8.84
777.914	11.1
778.091	10.07
778.268	9.65
778.445	8.23
778.622	7.06
778.8	4.25
778.977	3.18
779.154	4.28
779.331	4.66
779.508	6.3
779.685	7.6
779.862	8.23
780.038	9.45
780.215	10.1
780.392	9.73
780.569	9.46
780.746	9.98
780.923	11.55
781.1	11.91
781.277	11.79
781.453	10.77
781.63	6.53
781.807	4.46
781.984	4.4
782.16	4.04
782.337	4.98
782.514	8.36
782.691	10.96
782.867	11.97
783.044	11.93
783.221	13.45
783.397	13.25
783.574	16.98
783.75	15.7
783.927	15.94
784.103	15.46
784.28	15.95
784.456	13.65
784.633	9.67
784.809	10.26
784.986	9.44
785.162	8.89
785.339	8.35
785.515	7.37
785.692	11.83
785.868	13.09
786.044	12.57
786.221	15.04
786.397	13.59
786.573	16.63
786.749	17.83
786.926	17.58
787.102	15.56
787.278	15.14
787.454	14.74
787.631	14.67
787.807	12.78
787.983	15.22
788.159	11.13
788.335	11.55
788.511	10.79
788.687	7.22
788.863	5.4
789.039	6.83
789.216	6.8
789.392	7.53
789.568	5.72
789.744	6.18
789.919	3.99
790.095	7.01
790.271	6.81
790.447	6.87
790.623	8.42
790.799	9.03
790.975	11.41
791.151	12.93
791.327	11.67
791.502	11.12
791.678	10.54
791.854	11.44
792.03	9.25
792.205	8.62
792.381	6.6
792.557	1.35
792.733	4.36
792.908	-0.11
793.084	0.53
793.259	3.05
793.435	5.63
793.611	5.36
793.786	3.88
793.962	6.15
794.137	7.02
794.313	10.17
794.488	13.7
794.664	13.35
794.839	11.59
795.015	9.09
795.19	6.34
795.366	7.45
795.541	6.76
795.716	6.98
795.892	3.5
796.067	6
796.242	5.72
796.418	4.54
796.593	4.61
796.768	7.41
796.944	9.3
797.119	13.72
797.294	11.71
797.469	14.08
797.644	12.18
797.82	14.09
797.995	13.49
798.17	11.49
798.345	14.74
798.52	11.82
798.695	11.5
798.87	13.3
799.045	11.44
799.22	11.65
799.395	9.49
799.57	12.51
799.745	9.98
799.92	7.43
800.095	7.92
800.27	7.44
800.445	10.45
800.62	12.53
800.795	8.94
800.97	6.22
801.145	6.51
801.319	3.12
801.494	1.48
801.669	4.19
801.844	7.28
802.018	6.35
802.193	5.45
802.368	1.18
802.543	-2.47
802.717	1.55
802.892	2.04
803.067	-1.74
803.241	-0.62
803.416	1.77
803.59	2.09
803.765	3.59
803.94	8.2
804.114	9.34
804.289	13.78
804.463	16.72
804.638	14.93
804.812	16.5
804.986	19.05
805.161	22.51
805.335	21.23
805.51	20.6
805.684	17.74
805.858	15.38
806.033	11.84
806.207	12.89
806.381	8.54
806.556	9.43
806.73	10.17
806.904	7.85
807.078	9.34
807.253	8
807.427	10.12
807.601	12.42
807.775	10.69
807.949	12
808.123	11.72
808.298	12.54
808.472	13.16
808.646	13.89
808.82	19.49
808.994	15.96
809.168	15.59
809.342	10.76
809.516	7.7
809.69	10.98
809.864	14.06
810.038	12.32
810.212	13.92
810.385	10.39
810.559	9.13
810.733	7.73
810.907	11.52
811.081	15.92
811.255	20.18
811.428	22.08
811.602	24.14
811.776	20.96
811.95	22.36
812.123	21.41
812.297	25.44
812.471	23.95
812.644	21.77
812.818	20.12
812.992	18.6
813.165	15.78
813.339	12.63
813.512	9.87
813.686	10.99
813.86	7.94
814.033	7.64
814.207	8.78
814.38	14.08
814.554	11.27
814.727	11.36
814.9	7.94
815.074	11.04
815.247	12.78
815.421	15.12
815.594	13.8
815.767	14.86
815.941	16.51
816.114	16.85
816.287	14.32
816.46	14.25
816.634	9.94
816.807	9.26
816.98	12.63
817.153	16.05
817.327	11.33
817.5	12.39
817.673	9.66
817.846	9.71
818.019	7.97
818.192	7.82
818.365	9.71
818.538	13.99
818.711	19.47
818.884	15.14
819.057	13.63
819.23	12.83
819.403	13.3
819.576	17.39
819.749	15.07
819.922	10.34
820.095	10.53
820.268	13.14
820.441	9.98
820.614	5.81
820.786	6.32
820.959	4.97
821.132	7.97
821.305	8.62
821.477	8.17
821.65	11.33
821.823	11.23
821.996	10.73
822.168	9.4
822.341	10.82
822.514	12.16
822.686	11.48
822.859	12.09
823.031	11.16
823.204	11.46
823.376	11.81
823.549	10.5
823.722	11.15
823.894	11.54
824.067	12.27
824.239	10.86
824.411	9.98
824.584	11.26
824.756	11.18
824.929	11.54
825.101	10.75
825.273	10.86
825.446	12.08
825.618	12.47
825.79	13.08
825.963	13.5
826.135	15.6
826.307	15.43
826.479	15.34
826.652	15.15
826.824	14.97
826.996	15.45
827.168	14.78
827.34	13.2
827.512	11.74
827.684	11.47
827.856	10.2
828.029	8.46
828.201	9
828.373	7.59
828.545	7.29
828.717	8.59
828.889	9.41
829.061	10.18
829.232	11.53
829.404	13.53
829.576	12.54
829.748	16.55
829.92	19.03
830.092	18.99
830.264	19.17
830.436	19.48
830.607	17.29
830.779	14.13
830.951	12.23
831.123	9.52
831.294	8.02
831.466	9.88
831.638	4.32
831.809	-2.39
831.981	-2.31
832.153	-1.87
832.324	-2.36
832.496	1.33
832.667	8.19
832.839	10.18
833.011	13.07
833.182	14.45
833.354	12.18
833.525	10.92
833.697	13.02
833.868	10.79
834.039	11.75
834.211	10.8
834.382	9.82
834.554	8.08
834.725	8.76
834.896	7.75
835.068	9.23
835.239	10.22
835.41	12.86
835.581	13.71
835.753	15.07
835.924	16.6
836.095	19.17
836.266	17.72
836.438	15.83
836.609	14.59
836.78	16.98
836.951	14.38
837.122	12.24
837.293	11.31
837.464	11.85
837.635	14.57
837.806	12.3
837.977	7.78
838.148	10.3
838.319	14.82
838.49	14.63
838.661	13.66
838.832	15.53
839.003	18.12
839.174	18.03
839.345	20.01
839.516	21.15
839.687	24.61
839.857	29.93
840.028	31.4
840.199	29.37
840.37	31.06
840.54	25.58
840.711	26.03
840.882	24.61
841.053	19.37
841.223	18.69
841.394	14.13
841.564	15.48
841.735	13.54
841.906	10.79
842.076	6.63
842.247	3.59
842.417	8.4
842.588	3.18
842.758	4.24
842.929	7.6
843.099	2.16
843.27	-1.54
843.44	-10.58
843.611	-5.85
843.781	4.95
843.951	4.57
844.122	3.44
844.292	11.07
844.462	16.31
844.633	23.43
844.803	31.84
844.973	39.88
845.144	40.08
845.314	42.73
845.484	37.55
845.654	33.1
845.824	31.74
845.995	33.87
846.165	27.9
846.335	24.77
846.505	20.34
846.675	14.56
846.845	-2.66
847.015	8.47
847.185	-4.53
847.355	-8.89
847.525	-11.25
847.695	-6.86
847.865	-6.36
848.035	1.25
848.205	5.68
848.375	6.35
848.545	-5
848.715	0.85
848.884	-11.47
849.054	-13.2
849.224	6.06
849.394	7.77
849.564	1.66
849.733	1.93
849.903	10.02
850.073	2.35
850.243	-8.92
850.412	-4.35
850.582	-0.19
850.752	0.77
850.921	7.55
851.091	-3.81
851.26	-4.12
851.43	0.41
851.599	-9.06
851.769	-28.42
851.939	-41.43
852.108	-35.97
852.278	-43.21
852.447	-37.34
852.616	-28.76
852.786	-45.09
852.955	-22.34
853.125	-30.39
853.294	-32.36
853.463	-34.4
853.633	-0.66
853.802	21.23
853.971	30.99
854.141	35.55
854.31	24.51
854.479	21.04
854.648	29.08
854.818	27.59
854.987	26.9
855.156	27.15
855.325	37.28
855.494	20.42
855.663	7.42
855.832	1.06
856.001	2.83
856.171	6.93
856.34	11.34
856.509	0.91
856.678	-25.86
856.847	-2.93
857.016	6.77
857.185	-4.34
857.353	2.31
857.522	6.06
857.691	5.16
857.86	-7.91
858.029	-1.33
858.198	-8.8
858.367	0.58
858.535	24.55
858.704	25.74
858.873	24.39
859.042	28.02
859.21	32.77
859.379	23.89
859.548	13.48
859.717	8.76
859.885	1.77
860.054	1.38
860.222	-5.79
860.391	-28.53
860.56	-21.08
860.728	-26.74
860.897	-20.67
861.065	-28.03
861.234	-35.38
861.402	-19.97
861.571	-8.1
861.739	0.08
861.908	22.99
862.076	15.89
862.244	29.17
862.413	32.78
862.581	20.14
862.749	10.85
862.918	11.97
863.086	18.8
863.254	13.82
863.423	8.89
863.591	23.18
863.759	17.35
863.927	24.45
864.096	14.07
864.264	-0.55
864.432	6.39
864.6	10.24
864.768	13.1
864.936	26.21
865.104	29.88
865.272	35.48
865.44	7.64
865.608	-6.42
865.776	-2.27
865.944	-12.96
866.112	4.48
866.28	9.63
866.448	13.39
866.616	13.89
866.784	11.34
866.952	11.2
867.12	-2.35
867.288	11.12
867.455	20.59
867.623	16.31
867.791	24.71
867.959	33.25
868.127	27.21
868.294	29.41
868.462	36.14
868.63	32.82
868.797	24.57
868.965	37.42
869.133	28.53
869.3	21.99
869.468	29.12
869.636	17.68
869.803	6.81
869.971	-0.93
870.138	4.01
870.306	-18.78
870.473	-21.18
870.641	2.26
870.808	-15.36
870.975	0.97
871.143	1.67
871.31	-6.54
871.478	3.75
871.645	5.15
871.812	28.87
871.98	23.92
872.147	25.21
872.314	25.94
872.482	24.34
872.649	38.99
872.816	38.89
872.983	43.06
873.15	39.47
873.318	32.35
873.485	39.7
873.652	18.88
873.819	18.63
873.986	14.24
874.153	7.98
874.32	6.12
874.487	-6.64
874.654	-7.5
874.821	-12.21
874.988	5.7
875.155	23.07
875.322	19.89
875.489	25.82
875.656	28.51
875.823	30.95
875.99	46.67
876.157	52.18
876.324	56.8
876.49	62.98
876.657	47.32
876.824	34.29
876.991	25.15
877.157	18.81
877.324	8.96
877.491	9.15
877.658	1.79
877.824	-12.28
877.991	-24.58
878.157	-30.93
878.324	-22.68
878.491	-13.97
878.657	-21.59
878.824	-42.61
878.99	-47.46
879.157	-15.52
879.323	-25.9
879.49	-13.08
879.656	-1.71
879.823	-0.74
879.989	14.11
880.156	13.61
880.322	7.67
880.488	2.78
880.655	15.67
880.821	29.5
880.987	16.63
881.154	17.61
881.32	29.44
881.486	29.57
881.652	23.77
881.819	13.23
881.985	9.05
882.151	11.71
882.317	13.13
882.483	11.2
882.649	4.94
882.816	6.39
882.982	10.62
883.148	3.36
883.314	1.51
883.48	6.77
883.646	8.23
883.812	4.35
883.978	11.19
884.144	11.58
884.31	12.04
884.476	12.83
884.642	8.74
884.807	5.41
884.973	7.99
885.139	7.18
885.305	7.06
885.471	5.48
885.637	10.84
885.802	7.64
885.968	5.86
886.134	0.85
886.3	2.28
886.465	3.13
886.631	4.05
886.797	4.08
886.962	11.07
887.128	8.08
887.293	12.48
887.459	13.43
887.625	6.01
887.79	11.59
887.956	22.11
888.121	29.41
888.287	38.25
888.452	44.5
888.618	45.18
888.783	37.2
