Data from 2938092_Reflection_2.txt Node
Date: Sat Jul 11 19:14:29 EDT 2015
User: robert
Spectrometer: USB4E03001
Autoset integration time: false
Trigger mode: 4
Integration Time (sec): 1.000000E-1
Scans to average: 10
Electric dark correction enabled: true
Nonlinearity correction enabled: false
Boxcar width: 5
Stray light correction enabled: false
XAxis mode: Wavelengths
Stop averaging: false
Number of Pixels in Spectrum: 3648
>>>>>Begin Spectral Data<<<<<
177.566	54.72
177.785	46.74
178.005	32.8
178.225	21.62
178.445	-12.52
178.665	37.46
178.885	-3.96
179.105	35.12
179.324	53.67
179.544	58.17
179.764	43.97
179.984	60.22
180.204	25.17
180.423	24.65
180.643	14.77
180.863	18.39
181.083	40.14
181.302	67.02
181.522	-296.14
181.742	-212.08
181.961	-102.51
182.181	-220.04
182.401	-46.57
182.621	11.04
182.84	-14.63
183.06	-35.49
183.279	-51.86
183.499	-40.52
183.719	-19.08
183.938	44.37
184.158	58.01
184.377	56.45
184.597	41.89
184.816	45.68
185.036	31.37
185.256	58.06
185.475	59.67
185.695	61.69
185.914	42.18
186.134	47.41
186.353	55.32
186.572	50.48
186.792	47.43
187.011	69.94
187.231	73.13
187.45	37.89
187.67	12.01
187.889	-26.63
188.108	-3.2
188.328	10.6
188.547	-12.95
188.766	-90.33
188.986	-198.38
189.205	-55.08
189.424	-34.1
189.644	-12.22
189.863	23.98
190.082	0.89
190.302	19.04
190.521	-0.82
190.74	25.45
190.959	8.51
191.178	17.81
191.398	2.89
191.617	18.32
191.836	33.13
192.055	33.15
192.274	37.78
192.494	61.59
192.713	62.95
192.932	68.29
193.151	79.31
193.37	101.57
193.589	85.21
193.808	72.83
194.027	85.91
194.246	977.55
194.465	-193.95
194.685	-6.75
194.904	-73.61
195.123	4.08
195.342	133.24
195.561	-73.59
195.78	-85.51
195.999	-161.42
196.218	-86.46
196.436	-146.68
196.655	-102.82
196.874	-113.78
197.093	-97.3
197.312	-191.76
197.531	-230.05
197.75	-127.72
197.969	-200.99
198.188	-235.78
198.407	-1322.01
198.625	-1022.31
198.844	-227.78
199.063	-228.23
199.282	-120.87
199.501	-170.84
199.719	22.38
199.938	19.95
200.157	-8.18
200.376	-9.54
200.594	12.26
200.813	25.34
201.032	31.01
201.251	25.46
201.469	29.46
201.688	19.75
201.907	20.75
202.125	-4.52
202.344	-5.59
202.563	-4.62
202.781	-28.65
203	-40.51
203.218	-67.03
203.437	-122.01
203.656	-111.51
203.874	-87.21
204.093	-146.77
204.311	-134.7
204.53	-160.75
204.748	-217.63
204.967	-219.77
205.185	-126.5
205.404	-97.5
205.622	-50.31
205.841	-21.79
206.059	-63.35
206.278	-83.3
206.496	-21.32
206.715	-11.02
206.933	4.07
207.151	2.78
207.37	3.1
207.588	6.19
207.806	-0.64
208.025	-4.68
208.243	-8.23
208.461	-10.01
208.68	-6.76
208.898	-14.72
209.116	-13.18
209.335	-27.43
209.553	5.06
209.771	3.56
209.989	-25.89
210.208	-72.53
210.426	-238.17
210.644	-582.69
210.862	12.63
211.081	15.25
211.299	9.25
211.517	-1.48
211.735	-16.07
211.953	-181.41
212.171	-209.04
212.39	-331.07
212.608	-231.28
212.826	-305.49
213.044	-286.04
213.262	-249.27
213.48	-346.3
213.698	3287.2
213.916	-486.04
214.134	-143.98
214.352	-124.98
214.57	-84.38
214.788	-25.55
215.006	-39.23
215.224	-17.39
215.442	-10.68
215.66	-31.68
215.878	-40.01
216.096	-14.27
216.314	-32.48
216.532	-22.85
216.75	-27.57
216.968	-21.11
217.185	-3.76
217.403	6.61
217.621	-9.39
217.839	12.25
218.057	27.89
218.275	20.5
218.492	-3.4
218.71	5.96
218.928	-18.17
219.146	6.43
219.363	8
219.581	-3.25
219.799	9.29
220.017	11.18
220.234	-6.02
220.452	-31.87
220.67	7.71
220.887	10.8
221.105	-15.85
221.323	-11.13
221.54	-57.82
221.758	-61.36
221.976	-137.6
222.193	-934.8
222.411	-132.6
222.629	-221.98
222.846	-134.3
223.064	-122.38
223.281	-103.17
223.499	-75.01
223.716	-54.31
223.934	-38.2
224.151	-24.13
224.369	2.76
224.586	2.75
224.804	17.65
225.021	26.53
225.239	22.55
225.456	11.79
225.674	22.85
225.891	25.03
226.108	16.27
226.326	10.52
226.543	0.94
226.76	-12.56
226.978	-12.62
227.195	-12.74
227.413	-15.32
227.63	-9.13
227.847	-11.88
228.064	-4.63
228.282	2.05
228.499	9.48
228.716	12.29
228.934	13.27
229.151	17.68
229.368	18.9
229.585	16.74
229.802	15.44
230.02	14.44
230.237	17.7
230.454	16.2
230.671	14.76
230.888	9.51
231.105	9.95
231.323	11.81
231.54	5.96
231.757	4.13
231.974	6.57
232.191	8.06
232.408	8.28
232.625	2.9
232.842	-2.39
233.059	-3.23
233.276	1.52
233.493	-0.58
233.71	-7.32
233.927	-11.72
234.144	-10.73
234.361	-16.23
234.578	-26.21
234.795	-25.08
235.012	-15.69
235.229	-13.85
235.446	-9.19
235.663	-10.31
235.879	-15.77
236.096	-13.52
236.313	-9.52
236.53	-11.16
236.747	-4.72
236.964	-4.95
237.181	-0.15
237.397	0.51
237.614	-0.14
237.831	-1.63
238.048	1.64
238.264	7.07
238.481	5.13
238.698	9.19
238.915	4.41
239.131	7.46
239.348	10.3
239.565	12.98
239.781	10.93
239.998	14.23
240.215	10.62
240.431	5.2
240.648	6.87
240.865	6.93
241.081	8.44
241.298	12.52
241.514	11.36
241.731	12.53
241.947	7.51
242.164	7.64
242.38	6.71
242.597	9.84
242.814	10.49
243.03	9.76
243.246	11.91
243.463	9.37
243.679	9.02
243.896	7.52
244.112	5.35
244.329	7.35
244.545	7.95
244.762	8.51
244.978	5.59
245.194	3.93
245.411	5.18
245.627	5.39
245.843	6.03
246.06	6.31
246.276	6.97
246.492	6.89
246.709	7.04
246.925	7.48
247.141	7.41
247.357	8.21
247.574	9.15
247.79	7.98
248.006	7.32
248.222	8.9
248.439	8.87
248.655	9.19
248.871	10
249.087	11.32
249.303	10.42
249.519	10.7
249.736	9.07
249.952	7.98
250.168	6.62
250.384	8.26
250.6	6.01
250.816	5.5
251.032	6.96
251.248	5.27
251.464	3.62
251.68	3.18
251.896	2.81
252.112	4.54
252.328	5.91
252.544	8.22
252.76	6.59
252.976	6.74
253.192	7.71
253.408	5.26
253.624	6.64
253.84	4.31
254.056	3.65
254.272	3.7
254.487	2.45
254.703	4.73
254.919	2.31
255.135	-1.38
255.351	0.52
255.567	-4.44
255.782	-6.1
255.998	-5.89
256.214	-5.3
256.43	-4.15
256.646	-8.76
256.861	-8.73
257.077	-12.97
257.293	-8.22
257.508	-4
257.724	-6.13
257.94	-4.69
258.155	-1.53
258.371	-0.46
258.587	0.76
258.802	0.73
259.018	3.28
259.234	3.55
259.449	4.77
259.665	5.25
259.88	5.07
260.096	5.03
260.312	6.05
260.527	6.32
260.743	6.67
260.958	7.36
261.174	8.31
261.389	8.72
261.605	9.02
261.82	7.71
262.036	8.02
262.251	8.93
262.466	9.03
262.682	8.33
262.897	7.82
263.113	6.98
263.328	5.99
263.543	4.86
263.759	3.64
263.974	4.16
264.189	5.23
264.405	4.66
264.62	6.81
264.835	6.56
265.051	8.13
265.266	9.75
265.481	9.87
265.696	12.03
265.912	13.04
266.127	12.65
266.342	11.82
266.557	12.05
266.773	10.04
266.988	9.99
267.203	10.38
267.418	10.2
267.633	9.71
267.848	10.87
268.064	8.4
268.279	8.91
268.494	7.33
268.709	6.83
268.924	5.51
269.139	7.31
269.354	6.78
269.569	6.79
269.784	7.52
269.999	7.93
270.214	8.77
270.429	9.85
270.644	8.9
270.859	11.15
271.074	11.91
271.289	13.1
271.504	11.8
271.719	11.79
271.934	11.89
272.149	11.55
272.363	10.39
272.578	8.7
272.793	8.05
273.008	7.76
273.223	7.9
273.438	6.85
273.653	6.11
273.867	6.15
274.082	4.93
274.297	4.32
274.512	5.37
274.726	4.92
274.941	4.75
275.156	5.32
275.371	7.1
275.585	5.77
275.8	5.3
276.015	5.16
276.229	5.51
276.444	5.46
276.659	5.92
276.873	4.05
277.088	3.74
277.302	3.4
277.517	4.15
277.732	3.16
277.946	2.61
278.161	4.58
278.375	6.76
278.59	8.23
278.804	7.22
279.019	6.54
279.233	6.75
279.448	6.44
279.662	7.23
279.877	6.55
280.091	5.27
280.306	6.96
280.52	6.92
280.735	4.8
280.949	5.44
281.163	6.23
281.378	7.03
281.592	6.13
281.806	6.88
282.021	6.3
282.235	6.76
282.449	7.11
282.664	7.09
282.878	6.74
283.092	6.91
283.307	5.97
283.521	7.1
283.735	7.36
283.949	7.7
284.164	8.64
284.378	8.49
284.592	7.41
284.806	6.1
285.02	6.39
285.234	7.1
285.449	8.3
285.663	7.79
285.877	7.44
286.091	7.7
286.305	7.61
286.519	7.54
286.733	8.3
286.947	8.43
287.161	9.96
287.375	10.74
287.589	10.17
287.803	9.25
288.017	9.97
288.231	9.16
288.445	10.09
288.659	11.5
288.873	10.54
289.087	10.53
289.301	11.07
289.515	10.83
289.729	9.85
289.943	9.9
290.157	9.72
290.371	9.2
290.584	10.32
290.798	8.28
291.012	6.56
291.226	7.22
291.44	7.74
291.654	7.23
291.867	8
292.081	7.31
292.295	6.69
292.509	7.04
292.722	7.19
292.936	6.46
293.15	6.13
293.364	5.82
293.577	5.6
293.791	5.14
294.005	4.18
294.218	3.26
294.432	2.85
294.645	5.19
294.859	7.47
295.073	8.3
295.286	8.43
295.5	8.77
295.713	9.22
295.927	9.61
296.14	8.78
296.354	9.66
296.568	10.09
296.781	10.01
296.994	8.98
297.208	8.22
297.421	7.57
297.635	7.21
297.848	8.58
298.062	8.57
298.275	7.74
298.489	9.02
298.702	9.32
298.915	9.58
299.129	11.01
299.342	11.51
299.555	10.3
299.769	9.8
299.982	10.89
300.195	10.58
300.409	9.16
300.622	8.9
300.835	8.39
301.048	8.45
301.262	8.5
301.475	8.77
301.688	8.91
301.901	8.3
302.115	8.39
302.328	7.26
302.541	8.52
302.754	12.3
302.967	13.21
303.18	13.21
303.393	13.35
303.607	12.09
303.82	11.94
304.033	11.95
304.246	13.12
304.459	13.59
304.672	13.85
304.885	12.25
305.098	10.45
305.311	10.92
305.524	11.31
305.737	11.44
305.95	11.01
306.163	8.84
306.376	7.89
306.589	7.07
306.802	7.36
307.015	7.69
307.228	8.89
307.44	8.64
307.653	8.83
307.866	6.34
308.079	5.33
308.292	4.94
308.505	6.26
308.718	6.6
308.93	7.78
309.143	6.86
309.356	6.23
309.569	3.64
309.781	6.13
309.994	5.7
310.207	7.44
310.42	7.08
310.632	9.52
310.845	8.59
311.058	8.38
311.27	7.06
311.483	7.75
311.696	7
311.908	7.73
312.121	5.91
312.333	5.53
312.546	5.16
312.759	7.17
312.971	5.45
313.184	6.77
313.396	7.86
313.609	10.02
313.821	9.27
314.034	10.72
314.246	11.69
314.459	12.2
314.671	12.75
314.884	10.65
315.096	10.42
315.309	10.92
315.521	9.47
315.733	8.15
315.946	6.96
316.158	8.46
316.371	6.82
316.583	6.84
316.795	6.61
317.008	6.05
317.22	8.29
317.432	7.21
317.644	8.54
317.857	7.55
318.069	7.31
318.281	7.46
318.494	4.35
318.706	5.58
318.918	4.6
319.13	4.12
319.342	3.92
319.555	3.43
319.767	4.73
319.979	4.43
320.191	6.96
320.403	6.78
320.615	4.53
320.827	6.86
321.039	6.71
321.252	7.34
321.464	7.35
321.676	8.26
321.888	9.4
322.1	6.75
322.312	5.7
322.524	5.74
322.736	6.42
322.948	7.06
323.16	7.28
323.372	6.29
323.584	5.75
323.796	5.72
324.007	5.14
324.219	3.99
324.431	3.49
324.643	3.68
324.855	2.41
325.067	2.98
325.279	3.66
325.491	4.08
325.702	4.82
325.914	4.24
326.126	4.47
326.338	4.91
326.55	4.88
326.761	7.28
326.973	7.9
327.185	9.6
327.396	8.31
327.608	8.61
327.82	8
328.032	7.76
328.243	9.41
328.455	9.08
328.666	9.14
328.878	8.9
329.09	6.75
329.301	5.16
329.513	4.48
329.725	5.79
329.936	4.62
330.148	5.82
330.359	6.83
330.571	5.62
330.782	5.35
330.994	3.82
331.205	3.85
331.417	4.24
331.628	5.53
331.84	5.97
332.051	5.72
332.262	5.91
332.474	6.59
332.685	6.28
332.897	6.86
333.108	8.27
333.319	8.96
333.531	9.64
333.742	10.55
333.953	9.87
334.165	9.5
334.376	8.44
334.587	8.2
334.799	7.95
335.01	6.9
335.221	5.6
335.432	4.2
335.644	4.36
335.855	4.19
336.066	3.59
336.277	3.39
336.488	3.36
336.7	5.09
336.911	6.31
337.122	6.66
337.333	7.8
337.544	8.25
337.755	8.26
337.966	8.84
338.177	9.4
338.388	9.93
338.599	9.29
338.811	8.79
339.022	7.92
339.233	7.76
339.444	5.7
339.655	5.19
339.866	6.43
340.076	7.46
340.287	7.07
340.498	6.28
340.709	5.41
340.92	5.95
341.131	5.05
341.342	5.16
341.553	5.63
341.764	5.83
341.975	6.64
342.185	6.23
342.396	5.08
342.607	4.86
342.818	6.1
343.029	6.99
343.239	7.19
343.45	8.23
343.661	9.07
343.872	8.35
344.082	8.71
344.293	8.76
344.504	8.4
344.714	9.42
344.925	10.3
345.136	8.98
345.346	7.88
345.557	8.92
345.768	9.24
345.978	7.84
346.189	7.85
346.399	7.73
346.61	6.57
346.821	6.62
347.031	6.44
347.242	6.6
347.452	7.27
347.663	8.3
347.873	7.04
348.084	7.42
348.294	7.8
348.504	6.52
348.715	6.14
348.925	7.3
349.136	7.68
349.346	7.52
349.557	6.88
349.767	6.71
349.977	6.34
350.188	6.03
350.398	5.47
350.608	4.59
350.819	5.26
351.029	6.11
351.239	5.03
351.449	4.89
351.66	4.72
351.87	3.11
352.08	3.65
352.29	3.25
352.501	4.67
352.711	4.96
352.921	5.42
353.131	5.52
353.341	3.9
353.552	5.29
353.762	4.64
353.972	4.88
354.182	5.7
354.392	4.87
354.602	4.94
354.812	4.96
355.022	4.56
355.232	5.26
355.442	5.07
355.652	5.7
355.862	5.52
356.072	5.97
356.282	6.17
356.492	6.43
356.702	6.71
356.912	6.45
357.122	6.03
357.332	6.33
357.542	6.44
357.752	6.79
357.962	6.43
358.171	5.06
358.381	5.07
358.591	4.5
358.801	4.86
359.011	3.83
359.221	3.93
359.43	3.51
359.64	4.42
359.85	5.08
360.06	4.79
360.269	6.38
360.479	7.06
360.689	6.41
360.899	6.59
361.108	6.32
361.318	6.89
361.528	6.78
361.737	6.69
361.947	5.41
362.156	4.8
362.366	4.79
362.576	3.58
362.785	3.96
362.995	4.24
363.204	3.83
363.414	3.09
363.623	2.96
363.833	3.59
364.042	3.43
364.252	3.42
364.461	3.29
364.671	3.81
364.88	4.38
365.09	3.58
365.299	3.15
365.509	3.44
365.718	4.53
365.927	4.59
366.137	4.61
366.346	4.84
366.555	4.96
366.765	4.78
366.974	4.56
367.183	3.89
367.393	3.67
367.602	3.78
367.811	4.39
368.021	3.73
368.23	3.53
368.439	2.45
368.648	2.47
368.857	2.94
369.067	3.35
369.276	2.73
369.485	3.51
369.694	3.99
369.903	4.55
370.112	3.56
370.321	3.29
370.531	3.65
370.74	4.09
370.949	4.84
371.158	4.93
371.367	4.53
371.576	5.58
371.785	5.65
371.994	5.85
372.203	5.34
372.412	5.52
372.621	5.41
372.83	5.57
373.039	5.72
373.248	5.86
373.457	5.74
373.666	5.37
373.874	4.69
374.083	4.13
374.292	4.44
374.501	4.41
374.71	3.76
374.919	5.02
375.128	4.15
375.336	3.86
375.545	3.81
375.754	4.37
375.963	4.81
376.171	4.6
376.38	4.31
376.589	2.61
376.798	2.43
377.006	3.22
377.215	2.24
377.424	2.09
377.632	2.74
377.841	2.16
378.05	1.51
378.258	1.43
378.467	1.8
378.675	1.93
378.884	2.91
379.093	3.59
379.301	3.45
379.51	3.61
379.718	4.12
379.927	2.9
380.135	2.71
380.344	1.82
380.552	1.37
380.761	1.12
380.969	0.98
381.177	1.14
381.386	0.79
381.594	0.9
381.803	0.75
382.011	0.83
382.219	1.55
382.428	2.05
382.636	3.05
382.845	3.59
383.053	3.55
383.261	3.44
383.469	3.2
383.678	2.66
383.886	2.76
384.094	3.25
384.302	3.36
384.511	3.23
384.719	2.8
384.927	2.07
385.135	1.9
385.343	1.67
385.552	1.95
385.76	2.09
385.968	2.77
386.176	2.77
386.384	2.82
386.592	2.84
386.8	2.78
387.008	2.89
387.216	2.88
387.424	2.98
387.633	3.17
387.841	3.05
388.049	3.41
388.257	2.94
388.465	2.65
388.672	2.09
388.88	2.25
389.088	3.02
389.296	2.97
389.504	3.66
389.712	3.61
389.92	3.53
390.128	3.58
390.336	3.68
390.544	4.27
390.751	3.95
390.959	3.97
391.167	3.89
391.375	2.98
391.583	3.18
391.79	2.95
391.998	3.01
392.206	3.27
392.414	3.45
392.621	2.83
392.829	2.29
393.037	2.33
393.244	2.37
393.452	2.31
393.66	2.48
393.867	2.43
394.075	2.43
394.283	2.35
394.49	2.31
394.698	2.23
394.905	2.23
395.113	2.37
395.32	2.49
395.528	2.7
395.735	2.84
395.943	3.06
396.15	2.68
396.358	2.87
396.565	2.8
396.773	2.51
396.98	2.57
397.188	2.61
397.395	2.74
397.602	3.06
397.81	2.95
398.017	2.49
398.225	2.17
398.432	2.07
398.639	1.72
398.847	1.54
399.054	1.64
399.261	1.4
399.468	1.69
399.676	1.51
399.883	1.42
400.09	1.49
400.297	1.17
400.505	1.52
400.712	1.37
400.919	1.36
401.126	1.71
401.333	1.44
401.54	1.66
401.748	1.52
401.955	1.68
402.162	1.26
402.369	1.33
402.576	1.98
402.783	1.86
402.99	1.91
403.197	1.8
403.404	1.41
403.611	1.78
403.818	1.82
404.025	1.78
404.232	1.86
404.439	1.91
404.646	1.98
404.853	1.81
405.06	2.1
405.267	2.56
405.474	2.66
405.681	2.53
405.887	2.52
406.094	2.33
406.301	2.43
406.508	2.33
406.715	2.43
406.922	2.14
407.128	2.09
407.335	1.41
407.542	1.46
407.749	1.49
407.955	1.87
408.162	1.42
408.369	1.56
408.575	1.55
408.782	1.58
408.989	1.62
409.195	1.64
409.402	1.77
409.609	2.15
409.815	1.89
410.022	1.79
410.228	1.68
410.435	1.99
410.642	2.1
410.848	2.01
411.055	1.8
411.261	2.16
411.468	2.32
411.674	2.52
411.881	2.46
412.087	2.31
412.294	2.51
412.5	2.3
412.706	2.43
412.913	2.46
413.119	2.28
413.326	2.51
413.532	2.12
413.738	1.46
413.945	1.18
414.151	1.33
414.357	1.6
414.564	1.59
414.77	1.86
414.976	1.87
415.182	1.43
415.389	1.54
415.595	1.53
415.801	1.5
416.007	2.1
416.214	2.13
416.42	2.04
416.626	1.85
416.832	1.75
417.038	1.68
417.244	1.62
417.45	1.76
417.657	1.91
417.863	1.9
418.069	2.26
418.275	2.29
418.481	2.33
418.687	2.2
418.893	2.15
419.099	2.25
419.305	2.17
419.511	2.21
419.717	2.1
419.923	2.02
420.129	1.88
420.335	1.67
420.541	1.55
420.746	1.46
420.952	1.44
421.158	1.55
421.364	1.42
421.57	1.51
421.776	1.42
421.982	1.48
422.187	1.43
422.393	1.49
422.599	1.46
422.805	1.32
423.01	1.45
423.216	1.53
423.422	1.5
423.628	1.55
423.833	1.62
424.039	1.57
424.245	1.66
424.45	1.71
424.656	1.68
424.862	1.72
425.067	1.95
425.273	1.88
425.478	1.94
425.684	1.85
425.889	1.89
426.095	1.77
426.301	1.92
426.506	1.79
426.712	1.8
426.917	1.78
427.123	1.64
427.328	1.48
427.533	1.34
427.739	1.13
427.944	1.34
428.15	1.35
428.355	1.24
428.561	1.29
428.766	1.44
428.971	1.2
429.177	1.39
429.382	1.32
429.587	1.27
429.793	1.35
429.998	1.25
430.203	1.09
430.408	1.02
430.614	1.17
430.819	1.07
431.024	1.01
431.229	1.24
431.434	1.17
431.64	1.24
431.845	1.27
432.05	1.24
432.255	1.42
432.46	1.55
432.665	1.52
432.87	1.46
433.076	1.54
433.281	1.38
433.486	1.36
433.691	1.16
433.896	1.19
434.101	1.28
434.306	1.35
434.511	1.2
434.716	1.13
434.921	1.18
435.126	1.21
435.331	0.95
435.535	1.04
435.74	1
435.945	0.97
436.15	0.92
436.355	0.98
436.56	0.82
436.765	0.82
436.97	0.93
437.174	0.95
437.379	0.94
437.584	1.12
437.789	1.17
437.993	1.05
438.198	1.11
438.403	1.18
438.608	1.13
438.812	1.13
439.017	1.18
439.222	1.17
439.426	1.12
439.631	1.31
439.836	1.3
440.04	1.4
440.245	1.47
440.45	1.7
440.654	1.75
440.859	1.64
441.063	1.85
441.268	1.9
441.472	1.7
441.677	1.77
441.881	1.8
442.086	1.7
442.29	1.59
442.495	1.63
442.699	1.41
442.904	1.29
443.108	1.44
443.312	1.35
443.517	1.48
443.721	1.64
443.925	1.49
444.13	1.31
444.334	1.44
444.538	1.32
444.743	1.4
444.947	1.47
445.151	1.51
445.356	1.46
445.56	1.38
445.764	1.35
445.968	1.28
446.173	1.29
446.377	1.21
446.581	1.07
446.785	1.17
446.989	1.16
447.193	1.18
447.398	1.27
447.602	1.34
447.806	1.31
448.01	1.29
448.214	1.35
448.418	1.38
448.622	1.44
448.826	1.51
449.03	1.5
449.234	1.38
449.438	1.32
449.642	1.25
449.846	1.13
450.05	1.17
450.254	0.93
450.458	0.95
450.662	1.03
450.866	1
451.069	0.91
451.273	0.95
451.477	1.24
451.681	1.29
451.885	1.27
452.089	1.17
452.292	1.3
452.496	1.43
452.7	1.32
452.904	1.21
453.107	1.26
453.311	1.37
453.515	1.19
453.719	0.87
453.922	0.88
454.126	0.87
454.33	0.94
454.533	0.71
454.737	0.72
454.94	0.89
455.144	0.9
455.348	1.02
455.551	1.21
455.755	1.33
455.958	1.44
456.162	1.55
456.365	1.39
456.569	1.27
456.772	1.29
456.976	1.1
457.179	0.9
457.383	0.98
457.586	0.95
457.79	0.87
457.993	0.91
458.196	0.89
458.4	0.87
458.603	0.98
458.807	1.1
459.01	1.09
459.213	1.21
459.417	1.26
459.62	1.19
459.823	1.11
460.026	1.02
460.23	0.98
460.433	1.02
460.636	0.87
460.839	1.01
461.042	0.98
461.246	1.07
461.449	1.08
461.652	0.96
461.855	1.19
462.058	1.18
462.261	1.3
462.464	1.46
462.668	1.31
462.871	1.47
463.074	1.32
463.277	1.15
463.48	1.1
463.683	1.15
463.886	1.4
464.089	1.21
464.292	1.16
464.495	0.92
464.698	0.87
464.901	0.94
465.104	1.03
465.306	1.12
465.509	1.27
465.712	1.33
465.915	1.37
466.118	1.24
466.321	1.22
466.524	1.31
466.726	1.5
466.929	1.28
467.132	1.21
467.335	1
467.538	0.84
467.74	1.02
467.943	1.11
468.146	1.04
468.348	1.15
468.551	0.91
468.754	0.73
468.956	0.68
469.159	0.74
469.362	0.89
469.564	0.7
469.767	0.83
469.969	0.91
470.172	0.85
470.375	0.79
470.577	0.5
470.78	0.74
470.982	1
471.185	0.88
471.387	0.88
471.59	0.8
471.792	1.07
471.995	0.91
472.197	0.82
472.399	0.69
472.602	0.63
472.804	0.92
473.007	0.7
473.209	0.57
473.411	0.5
473.614	0.69
473.816	0.71
474.018	0.63
474.22	0.78
474.423	0.66
474.625	0.73
474.827	0.9
475.03	0.92
475.232	1.17
475.434	1.12
475.636	1.32
475.838	1.02
476.04	0.94
476.243	1.02
476.445	1.05
476.647	1.05
476.849	1.17
477.051	1.04
477.253	0.88
477.455	0.76
477.657	0.81
477.859	0.77
478.061	0.88
478.263	0.89
478.465	0.96
478.667	0.88
478.869	0.9
479.071	0.77
479.273	0.83
479.475	1
479.677	0.97
479.879	1.1
480.081	1.3
480.283	1.41
480.485	1.5
480.686	1.34
480.888	1.39
481.09	1.31
481.292	1.34
481.494	1.41
481.695	1.34
481.897	1.31
482.099	1.21
482.301	1.04
482.502	0.98
482.704	0.97
482.906	1
483.107	1.04
483.309	0.98
483.511	0.94
483.712	0.95
483.914	0.99
484.115	1.05
484.317	1.07
484.519	1.04
484.72	1.07
484.922	1.07
485.123	1.04
485.325	0.99
485.526	1.08
485.728	1.15
485.929	1.14
486.131	1.13
486.332	1.1
486.534	1.07
486.735	1.18
486.936	1.15
487.138	1.18
487.339	1.18
487.541	1.15
487.742	1.12
487.943	1.06
488.144	1.05
488.346	0.98
488.547	0.96
488.748	0.98
488.95	0.84
489.151	0.79
489.352	0.64
489.553	0.68
489.755	0.76
489.956	0.69
490.157	0.73
490.358	0.78
490.559	0.8
490.76	0.78
490.961	0.85
491.163	0.97
491.364	1.1
491.565	1.18
491.766	1.14
491.967	1.13
492.168	1.23
492.369	1.2
492.57	1.14
492.771	1.19
492.972	1.21
493.173	1.1
493.374	1.07
493.575	1.07
493.776	1.28
493.976	1.34
494.177	1.19
494.378	1.11
494.579	1.09
494.78	1.07
494.981	1.07
495.182	1.12
495.382	1.18
495.583	1.14
495.784	1.05
495.985	0.86
496.185	0.97
496.386	0.96
496.587	0.98
496.788	1.05
496.988	1.14
497.189	1.06
497.39	1.17
497.59	1.15
497.791	1.25
497.992	1.19
498.192	1.27
498.393	1.22
498.593	1.29
498.794	1.35
498.994	1.31
499.195	1.24
499.395	1.39
499.596	1.37
499.796	1.26
499.997	1.11
500.197	1.19
500.398	1.18
500.598	1
500.799	0.93
500.999	0.96
501.199	1.05
501.4	1.01
501.6	0.71
501.801	0.49
502.001	0.61
502.201	0.63
502.402	0.86
502.602	0.84
502.802	0.88
503.002	0.97
503.203	0.88
503.403	0.73
503.603	0.74
503.803	0.86
504.003	0.91
504.204	0.93
504.404	0.93
504.604	0.57
504.804	0.44
505.004	0.46
505.204	0.53
505.404	0.61
505.604	0.57
505.804	0.66
506.005	0.62
506.205	0.65
506.405	0.65
506.605	0.65
506.805	0.74
507.005	0.78
507.204	0.9
507.404	0.84
507.604	0.77
507.804	0.96
508.004	0.93
508.204	1.05
508.404	1.07
508.604	1.16
508.804	1.17
509.003	1.31
509.203	1.3
509.403	1.31
509.603	1.43
509.803	1.57
510.002	1.45
510.202	1.51
510.402	1.67
510.602	1.83
510.801	1.84
511.001	1.91
511.201	1.77
511.4	1.93
511.6	2.03
511.8	1.97
511.999	1.8
512.199	1.83
512.398	1.79
512.598	1.52
512.797	1.58
512.997	1.61
513.197	1.56
513.396	1.54
513.596	1.36
513.795	1.05
513.994	1.02
514.194	0.99
514.393	0.88
514.593	0.97
514.792	1
514.992	0.77
515.191	0.71
515.39	0.81
515.59	0.9
515.789	1.03
515.988	1.14
516.188	1.11
516.387	1.15
516.586	1.35
516.786	1.37
516.985	1.36
517.184	1.31
517.383	1.45
517.582	1.41
517.782	1.48
517.981	1.38
518.18	1.39
518.379	1.43
518.578	1.39
518.777	1.38
518.976	1.36
519.176	1.5
519.375	1.65
519.574	1.48
519.773	1.52
519.972	1.44
520.171	1.52
520.37	1.58
520.569	1.44
520.768	1.59
520.967	1.52
521.166	1.41
521.365	1.34
521.564	1.21
521.762	1.22
521.961	1.17
522.16	1.38
522.359	1.45
522.558	1.29
522.757	1.5
522.956	1.41
523.154	1.54
523.353	1.64
523.552	1.63
523.751	1.55
523.949	1.53
524.148	1.52
524.347	1.33
524.546	1.33
524.744	1.53
524.943	1.49
525.142	1.49
525.34	1.45
525.539	1.47
525.737	1.48
525.936	1.59
526.135	1.63
526.333	1.68
526.532	1.75
526.73	1.68
526.929	1.66
527.127	1.72
527.326	1.66
527.524	1.59
527.723	1.56
527.921	1.62
528.12	1.62
528.318	1.6
528.516	1.58
528.715	1.54
528.913	1.6
529.112	1.56
529.31	1.55
529.508	1.63
529.707	1.76
529.905	1.83
530.103	1.8
530.301	1.81
530.5	1.85
530.698	1.84
530.896	1.91
531.094	1.84
531.293	1.94
531.491	2.01
531.689	1.94
531.887	1.87
532.085	1.79
532.283	1.79
532.481	1.82
532.68	1.74
532.878	1.75
533.076	1.75
533.274	1.8
533.472	1.79
533.67	1.77
533.868	1.83
534.066	1.82
534.264	1.87
534.462	1.9
534.66	1.99
534.858	2.06
535.056	2.06
535.253	2.01
535.451	2
535.649	2
535.847	1.87
536.045	1.91
536.243	1.91
536.441	1.82
536.638	1.87
536.836	1.8
537.034	1.86
537.232	1.95
537.43	2.1
537.627	2.2
537.825	2.27
538.023	2.39
538.22	2.47
538.418	2.56
538.616	2.66
538.813	2.55
539.011	2.49
539.209	2.41
539.406	2.41
539.604	2.48
539.801	2.47
539.999	2.48
540.196	2.48
540.394	2.42
540.591	2.38
540.789	2.43
540.986	2.55
541.184	2.61
541.381	2.64
541.579	2.67
541.776	2.57
541.974	2.53
542.171	2.55
542.368	2.49
542.566	2.45
542.763	2.43
542.96	2.43
543.158	2.36
543.355	2.41
543.552	2.43
543.75	2.38
543.947	2.33
544.144	2.31
544.341	2.31
544.539	2.45
544.736	2.52
544.933	2.76
545.13	2.67
545.327	2.66
545.524	2.67
545.722	2.67
545.919	2.76
546.116	2.84
546.313	2.9
546.51	2.88
546.707	2.89
546.904	2.83
547.101	2.75
547.298	2.86
547.495	2.93
547.692	2.91
547.889	2.96
548.086	2.9
548.283	3.04
548.48	3.22
548.677	3.21
548.874	3.25
549.07	3.46
549.267	3.44
549.464	3.33
549.661	3.38
549.858	3.37
550.055	3.2
550.251	3.1
550.448	3.07
550.645	2.91
550.842	3.02
551.038	2.93
551.235	3.07
551.432	3.17
551.628	3.4
551.825	3.49
552.022	3.58
552.218	3.8
552.415	3.97
552.612	4.09
552.808	4.06
553.005	4.2
553.201	4.35
553.398	4.14
553.594	4.1
553.791	4.17
553.987	4.02
554.184	3.95
554.38	4.17
554.577	4.2
554.773	4.22
554.97	4.18
555.166	4.15
555.362	4.12
555.559	4.02
555.755	4.17
555.952	4
556.148	4.25
556.344	4.24
556.541	3.84
556.737	3.84
556.933	3.77
557.129	4.04
557.326	4.13
557.522	4.24
557.718	4.4
557.914	4.18
558.11	4.09
558.307	3.83
558.503	4.05
558.699	4.32
558.895	4.59
559.091	4.73
559.287	4.54
559.483	4.22
559.679	4.28
559.876	4.29
560.072	4.35
560.268	4.71
560.464	4.82
560.66	4.8
560.856	4.87
561.052	4.67
561.247	4.6
561.443	4.63
561.639	4.92
561.835	4.83
562.031	4.99
562.227	5.04
562.423	4.97
562.619	5.06
562.815	5.18
563.01	5.04
563.206	4.99
563.402	4.9
563.598	4.9
563.793	4.67
563.989	4.64
564.185	4.5
564.381	4.53
564.576	4.39
564.772	4.49
564.968	4.41
565.163	4.61
565.359	4.75
565.555	5.06
565.75	5.33
565.946	5.62
566.141	5.71
566.337	5.9
566.532	5.83
566.728	5.97
566.923	5.91
567.119	5.97
567.314	5.89
567.51	5.78
567.705	5.75
567.901	5.61
568.096	5.55
568.292	5.67
568.487	5.67
568.682	5.97
568.878	5.88
569.073	5.85
569.268	5.99
569.464	6.05
569.659	6.26
569.854	6.17
570.05	6.23
570.245	6.13
570.44	5.99
570.635	5.88
570.831	5.89
571.026	5.93
571.221	6.03
571.416	6.18
571.611	6.2
571.806	6.17
572.002	6.2
572.197	6.36
572.392	6.43
572.587	6.56
572.782	6.8
572.977	6.74
573.172	6.94
573.367	6.97
573.562	6.72
573.757	6.9
573.952	6.96
574.147	7.08
574.342	6.79
574.537	6.86
574.732	6.8
574.927	6.79
575.121	6.81
575.316	6.66
575.511	6.55
575.706	6.76
575.901	6.55
576.096	6.61
576.29	6.53
576.485	6.64
576.68	6.79
576.875	6.87
577.069	6.82
577.264	6.88
577.459	7.11
577.654	7.16
577.848	7.03
578.043	7.18
578.238	7.19
578.432	7.15
578.627	7.15
578.821	6.75
579.016	6.77
579.21	6.74
579.405	6.63
579.6	6.57
579.794	6.75
579.989	6.83
580.183	6.67
580.378	6.69
580.572	6.7
580.766	6.72
580.961	7.08
581.155	7.06
581.35	6.91
581.544	7.07
581.738	6.9
581.933	6.8
582.127	6.95
582.321	7.2
582.516	7.16
582.71	7.2
582.904	7.35
583.099	7.54
583.293	7.41
583.487	7.67
583.681	7.51
583.875	7.62
584.07	7.78
584.264	7.42
584.458	7.39
584.652	7.29
584.846	7.21
585.04	7.32
585.234	7.35
585.428	7.33
585.623	7.22
585.817	7.41
586.011	7.4
586.205	7.18
586.399	7.32
586.593	7.1
586.787	7.03
586.981	7.3
587.174	7.02
587.368	6.62
587.562	6.59
587.756	6.67
587.95	6.8
588.144	7.05
588.338	7.1
588.532	7.16
588.725	7.28
588.919	7.59
589.113	7.16
589.307	7.2
589.501	7.41
589.694	7.37
589.888	7.36
590.082	7.25
590.275	7.04
590.469	7.24
590.663	7.18
590.856	7.13
591.05	6.84
591.244	7.12
591.437	7.3
591.631	7.33
591.824	7.42
592.018	7.68
592.212	7.48
592.405	7.46
592.599	7.33
592.792	7.29
592.986	7.37
593.179	7.38
593.372	7.45
593.566	7.53
593.759	7.37
593.953	7.47
594.146	7.09
594.339	7.35
594.533	7.25
594.726	7.25
594.92	7.42
595.113	7.64
595.306	7.65
595.499	7.77
595.693	7.64
595.886	7.8
596.079	7.78
596.272	7.89
596.466	7.97
596.659	8.05
596.852	8.2
597.045	8.23
597.238	7.96
597.431	8.28
597.624	7.98
597.818	7.85
598.011	7.78
598.204	7.65
598.397	7.75
598.59	7.58
598.783	7.45
598.976	7.22
599.169	6.92
599.362	7.14
599.555	6.74
599.748	7.01
599.941	7.02
600.134	7.23
600.326	7.56
600.519	7.3
600.712	7.08
600.905	7.18
601.098	7.32
601.291	7.62
601.483	7.64
601.676	7.82
601.869	7.75
602.062	7.92
602.255	7.72
602.447	7.66
602.64	7.7
602.833	7.87
603.025	7.9
603.218	7.86
603.411	7.71
603.603	7.55
603.796	7.62
603.989	7.56
604.181	7.66
604.374	7.82
604.566	7.92
604.759	8.11
604.951	8.1
605.144	8.15
605.336	8.38
605.529	8.4
605.721	8.54
605.914	8.45
606.106	8.66
606.299	8.74
606.491	8.64
606.683	8.52
606.876	8.45
607.068	8.56
607.26	8.6
607.453	8.53
607.645	8.61
607.837	8.7
608.03	8.65
608.222	8.48
608.414	8.31
608.606	7.98
608.799	7.94
608.991	7.9
609.183	7.77
609.375	7.61
609.567	7.34
609.759	7.26
609.952	7.1
610.144	7.1
610.336	7.23
610.528	6.89
610.72	7.23
610.912	7.12
611.104	7.06
611.296	7.05
611.488	7.19
611.68	7.48
611.872	7.65
612.064	7.63
612.256	7.63
612.448	7.6
612.64	7.97
612.832	7.65
613.023	7.68
613.215	7.63
613.407	7.8
613.599	7.86
613.791	7.55
613.983	7.46
614.174	7.44
614.366	7.4
614.558	7.12
614.75	6.97
614.941	7.21
615.133	7.59
615.325	7.42
615.516	7.41
615.708	7.13
615.9	7.13
616.091	6.92
616.283	7.02
616.475	7.11
616.666	7.15
616.858	7.5
617.049	7.05
617.241	6.73
617.432	6.84
617.624	7.01
617.815	7.12
618.007	7.57
618.198	7.94
618.39	7.86
618.581	7.67
618.773	7.83
618.964	7.45
619.155	8.35
619.347	8.24
619.538	8.22
619.729	7.88
619.921	7.66
620.112	7.24
620.303	6.89
620.494	7.08
620.686	7.17
620.877	7.07
621.068	7.35
621.259	6.97
621.451	7.23
621.642	7.16
621.833	6.95
622.024	7.2
622.215	7.43
622.406	7.53
622.597	7.47
622.788	7.99
622.98	8.29
623.171	8.21
623.362	8.07
623.553	8.18
623.744	8.48
623.935	8.67
624.126	9.12
624.317	8.88
624.508	8.9
624.698	8.92
624.889	8.46
625.08	8.42
625.271	8.35
625.462	8.2
625.653	7.94
625.844	7.86
626.034	8.33
626.225	7.79
626.416	8.1
626.607	8
626.798	7.87
626.988	8.04
627.179	8.01
627.37	8.04
627.56	8.33
627.751	8.4
627.942	8.68
628.132	8.34
628.323	8.55
628.514	8.17
628.704	8.33
628.895	8.59
629.085	8.42
629.276	8.3
629.466	8.37
629.657	8.29
629.847	8.35
630.038	8.09
630.228	8.03
630.419	7.94
630.609	7.96
630.8	7.69
630.99	7.35
631.181	7.48
631.371	7.8
631.561	7.48
631.752	7.43
631.942	7.3
632.132	7.24
632.323	7.27
632.513	7.18
632.703	7.04
632.893	7.43
633.084	7.52
633.274	7.59
633.464	7.38
633.654	7.83
633.844	7.71
634.034	7.86
634.225	7.95
634.415	8
634.605	8.13
634.795	8.52
634.985	8.32
635.175	8.39
635.365	8.55
635.555	8.37
635.745	8.27
635.935	8.24
636.125	7.94
636.315	7.64
636.505	8.02
636.695	7.91
636.885	7.4
637.075	7.48
637.265	7.4
637.455	7.3
637.644	7.37
637.834	7.3
638.024	7.25
638.214	7.62
638.404	7.86
638.593	7.39
638.783	7.72
638.973	8.47
639.163	8.51
639.352	8.78
639.542	8.5
639.732	8.74
639.921	8.68
640.111	8.73
640.301	8.54
640.49	8.83
640.68	9.08
640.87	9.04
641.059	8.54
641.249	8.78
641.438	8.62
641.628	8.59
641.817	7.99
642.007	8.12
642.196	8.4
642.386	8.77
642.575	8.53
642.764	8.42
642.954	7.81
643.143	8.11
643.333	7.67
643.522	7.51
643.711	7.42
643.901	7.59
644.09	7.29
644.279	7.02
644.469	6.93
644.658	6.65
644.847	6.75
645.036	7.12
645.226	7.22
645.415	7.15
645.604	7.01
645.793	7.13
645.982	7.32
646.171	7.34
646.361	7.62
646.55	7.3
646.739	7.86
646.928	7.64
647.117	8.08
647.306	7.96
647.495	8.19
647.684	8.3
647.873	8.32
648.062	8.14
648.251	8.17
648.44	8.2
648.629	8.67
648.818	8.56
649.007	8.34
649.196	8.02
649.384	7.87
649.573	8.26
649.762	8.49
649.951	8.73
650.14	9.16
650.328	9.02
650.517	8.44
650.706	8
650.895	7.89
651.083	7.74
651.272	7.72
651.461	7.82
651.65	7.03
651.838	6.95
652.027	6.72
652.216	6.95
652.404	7.59
652.593	7.77
652.781	8.18
652.97	8.12
653.158	8.75
653.347	8.4
653.535	8.55
653.724	8.9
653.912	8.71
654.101	9.07
654.289	9.14
654.478	8.61
654.666	8.8
654.855	8.58
655.043	8.37
655.231	7.93
655.42	8.44
655.608	8.19
655.796	8.58
655.985	9.03
656.173	8.54
656.361	8.3
656.55	8.77
656.738	8.7
656.926	8.45
657.114	8.65
657.302	8.72
657.491	8.81
657.679	8.8
657.867	8.63
658.055	8.43
658.243	8.56
658.431	8.39
658.619	8.05
658.807	8.38
658.996	8.5
659.184	8.69
659.372	8.86
659.56	8.81
659.748	8.82
659.936	8.67
660.124	8.93
660.311	9.13
660.499	9.25
660.687	9.31
660.875	8.73
661.063	8.74
661.251	8.49
661.439	8.61
661.627	8.38
661.814	8.46
662.002	8.35
662.19	7.82
662.378	7.75
662.565	7.34
662.753	7.65
662.941	7.96
663.129	7.6
663.316	7.61
663.504	7.15
663.692	7.03
663.879	7.18
664.067	7.63
664.254	8.08
664.442	8.24
664.63	8.2
664.817	7.81
665.005	8.12
665.192	8.43
665.38	8.82
665.567	8.76
665.755	9.27
665.942	9.12
666.13	8.87
666.317	8.73
666.504	8.56
666.692	8.51
666.879	8.78
667.067	8.59
667.254	8.43
667.441	8.34
667.629	8.11
667.816	7.67
668.003	7.79
668.19	8.06
668.378	8.18
668.565	8.32
668.752	8.95
668.939	8.62
669.127	8.67
669.314	9.09
669.501	8.51
669.688	9.02
669.875	9.02
670.062	8.69
670.249	8.56
670.436	8.27
670.623	7.54
670.81	7.23
670.997	7.68
671.184	8.03
671.371	7.83
671.558	8
671.745	7.97
671.932	8.05
672.119	8.43
672.306	8.61
672.493	8.73
672.68	9.9
672.867	10.02
673.054	9.53
673.24	9.21
673.427	8.91
673.614	9.02
673.801	9.35
673.988	9.5
674.174	8.89
674.361	8.56
674.548	8.52
674.734	7.74
674.921	7.62
675.108	7.6
675.294	7.32
675.481	7.5
675.668	8.28
675.854	8.04
676.041	7.71
676.227	8.21
676.414	8.02
676.601	8.32
676.787	8.88
676.974	8.76
677.16	8.7
677.347	8.89
677.533	9.05
677.719	8.55
677.906	8.84
678.092	9.05
678.279	9.05
678.465	9.72
678.651	9.24
678.838	8.9
679.024	9.11
679.21	9.56
679.397	9.71
679.583	9.75
679.769	9.41
679.955	8.96
680.142	8.99
680.328	8.71
680.514	8.35
680.7	8.47
680.886	9.05
681.073	8.98
681.259	8.7
681.445	9.1
681.631	8.94
681.817	9.31
682.003	9.8
682.189	10.15
682.375	10.8
682.561	10.7
682.747	10.9
682.933	10.34
683.119	10.64
683.305	10.93
683.491	10.49
683.677	10.57
683.863	10.56
684.049	10.41
684.235	10.09
684.42	9.7
684.606	9.67
684.792	9.83
684.978	9.46
685.164	9.26
685.349	8.66
685.535	8.68
685.721	9.3
685.907	9.04
686.092	8.78
686.278	8.93
686.464	8.73
686.649	8.84
686.835	8.15
687.021	8.57
687.206	7.79
687.392	8.24
687.577	8.2
687.763	7.64
687.948	7.88
688.134	8.15
688.319	8.05
688.505	8.24
688.69	8.47
688.876	9.35
689.061	9.62
689.247	9.66
689.432	9.63
689.618	9.74
689.803	9.82
689.988	9.84
690.174	9.77
690.359	9.26
690.544	9.06
690.73	9.25
690.915	8.84
691.1	8.62
691.285	9.18
691.471	9.24
691.656	9.12
691.841	9.39
692.026	9.12
692.211	8.48
692.396	9.08
692.582	9.16
692.767	8.79
692.952	8.84
693.137	8.53
693.322	8.65
693.507	8.5
693.692	8.25
693.877	7.32
694.062	8.03
694.247	8.67
694.432	8.19
694.617	8.08
694.802	7.75
694.987	7.63
695.172	7.52
695.357	7.84
695.541	8.15
695.726	8.21
695.911	9.04
696.096	8.08
696.281	7.48
696.466	7.85
696.65	8.33
696.835	8.82
697.02	8.53
697.204	8.65
697.389	8.46
697.574	8.24
697.759	8.5
697.943	8.48
698.128	8.64
698.312	9.04
698.497	8.65
698.682	8.59
698.866	8.54
699.051	8.45
699.235	8.25
699.42	8.23
699.604	8.01
699.789	7.64
699.973	7.55
700.158	7.44
700.342	7.79
700.527	8.14
700.711	8.21
700.895	8.24
701.08	8.92
701.264	9.5
701.448	9.64
701.633	9.93
701.817	9.61
702.001	9.84
702.186	10.37
702.37	9.92
702.554	10.21
702.738	9.87
702.923	8.9
703.107	8.84
703.291	8.73
703.475	8.82
703.659	8.96
703.843	9.78
704.027	9.25
704.212	8.88
704.396	8.79
704.58	8.9
704.764	8.75
704.948	8.96
705.132	9
705.316	9.18
705.5	8.89
705.684	8.76
705.868	8.54
706.052	8.78
706.235	8.97
706.419	9.08
706.603	8.76
706.787	8.55
706.971	9.07
707.155	8.18
707.339	8.24
707.522	8.51
707.706	8.8
707.89	9.26
708.074	9.44
708.257	9.75
708.441	9.61
708.625	9.78
708.808	10.71
708.992	10.58
709.176	11.1
709.359	10.13
709.543	10.45
709.727	10.76
709.91	10.92
710.094	10.61
710.277	9.73
710.461	10.11
710.644	9.86
710.828	9.02
711.011	9.64
711.195	9.66
711.378	10.24
711.562	10.33
711.745	10.22
711.928	9.65
712.112	9.58
712.295	9.9
712.478	9.46
712.662	9.38
712.845	9.99
713.028	9.7
713.212	10.25
713.395	9.97
713.578	9.58
713.761	9.13
713.945	9.17
714.128	9.76
714.311	9.88
714.494	9.97
714.677	9.99
714.86	9.75
715.043	9.24
715.227	8.2
715.41	8.51
715.593	8.66
715.776	8.14
715.959	8.05
716.142	8.04
716.325	7.98
716.508	7.88
716.691	7.74
716.874	7.19
717.057	7.83
717.239	8.17
717.422	8.8
717.605	9.07
717.788	10.69
717.971	10.9
718.154	10.34
718.337	10.19
718.519	9.95
718.702	10
718.885	10.62
719.068	9.94
719.25	10.1
719.433	9.4
719.616	8.9
719.798	8.81
719.981	8.94
720.164	8.63
720.346	8.63
720.529	9.5
720.712	10.79
720.894	10.5
721.077	10.71
721.259	11.09
721.442	9.71
721.624	9.04
721.807	7.89
721.989	8.54
722.172	9.87
722.354	10.08
722.537	9.65
722.719	8.23
722.901	9.18
723.084	9.11
723.266	9.3
723.448	10.45
723.631	10.84
723.813	11.03
723.995	10.98
724.178	9.32
724.36	9.97
724.542	8.93
724.724	8.96
724.907	8.08
725.089	9.42
725.271	9.82
725.453	10
725.635	9.96
725.817	10.14
725.999	9.2
726.181	10.07
726.364	9.17
726.546	10.52
726.728	10.1
726.91	10.43
727.092	9.61
727.274	8.71
727.456	9.07
727.638	9.37
727.819	8.85
728.001	8.73
728.183	9.06
728.365	10
728.547	9.65
728.729	9.76
728.911	9.91
729.093	10.03
729.274	9.11
729.456	8.28
729.638	8.31
729.82	10.01
730.001	11.34
730.183	10.75
730.365	10.47
730.546	11
730.728	11.32
730.91	10.58
731.091	10.21
731.273	10.65
731.455	10.7
731.636	10.64
731.818	9.13
731.999	7.85
732.181	7.86
732.362	7.87
732.544	6.85
732.725	6.41
732.907	6.92
733.088	7.63
733.27	8.98
733.451	9.65
733.633	9.41
733.814	9.82
733.995	9.48
734.177	9.55
734.358	8.74
734.539	10.31
734.721	11.63
734.902	11.5
735.083	10.81
735.264	9.79
735.446	9.41
735.627	9.81
735.808	9.39
735.989	9.18
736.17	9.06
736.351	10.07
736.533	9.97
736.714	8.94
736.895	8.86
737.076	9.13
737.257	9.59
737.438	9.24
737.619	9.94
737.8	9.94
737.981	12.53
738.162	13.06
738.343	12.11
738.524	11.5
738.705	12.32
738.886	12.5
739.067	11.97
739.247	11.3
739.428	12.19
739.609	10.25
739.79	11.09
739.971	8.92
740.151	8.27
740.332	8.5
740.513	8.25
740.694	6.81
740.874	7.89
741.055	8.94
741.236	9.64
741.417	9.15
741.597	9.61
741.778	8.81
741.958	9.61
742.139	11.03
742.32	10.55
742.5	10.92
742.681	11.97
742.861	9.79
743.042	8.37
743.222	7.94
743.403	7.46
743.583	7.31
743.764	7.2
743.944	6.75
744.124	5.75
744.305	6.95
744.485	5.55
744.666	4.18
744.846	5.37
745.026	6.24
745.207	5.74
745.387	5.53
745.567	6.82
745.747	6.07
745.928	6.37
746.108	6.61
746.288	6.04
746.468	6.4
746.648	6.75
746.829	6.81
747.009	6.25
747.189	6.82
747.369	7.42
747.549	6.57
747.729	7.06
747.909	7.39
748.089	6.54
748.269	6.92
748.449	6.21
748.629	7.4
748.809	6.52
748.989	6.08
749.169	5.43
749.349	4.41
749.529	4.64
749.709	4.79
749.889	4.99
750.068	5.55
750.248	5.71
750.428	6.75
750.608	5.9
750.788	7.27
750.967	8.06
751.147	8.42
751.327	10.75
751.507	10.99
751.686	11.99
751.866	10.81
752.046	11.39
752.225	11.42
752.405	11.83
752.585	11.86
752.764	11.11
752.944	11.61
753.123	11.7
753.303	9.88
753.482	10.34
753.662	9.98
753.841	10.23
754.021	9.71
754.2	10.52
754.38	11.01
754.559	12.11
754.739	12.68
754.918	12.16
755.097	12.42
755.277	12.58
755.456	12.96
755.635	12.89
755.815	13.01
755.994	13.36
756.173	12.76
756.352	11.39
756.532	11.92
756.711	10.74
756.89	10.45
757.069	10.12
757.248	12.51
757.427	11.15
757.607	10.06
757.786	10.41
757.965	9.72
758.144	9.43
758.323	10.01
758.502	9.61
758.681	10.99
758.86	11.95
759.039	12.74
759.218	11.15
759.397	11.14
759.576	11.3
759.755	10.92
759.934	11.43
760.113	11.36
760.291	10.86
760.47	10.22
760.649	8.77
760.828	7.48
761.007	7.21
761.186	6.59
761.364	7.23
761.543	7.74
761.722	9
761.901	9.61
762.079	9.06
762.258	9.62
762.437	9.45
762.615	10.42
762.794	11.07
762.972	10.61
763.151	10.85
763.33	10.1
763.508	10.48
763.687	10.05
763.865	9.69
764.044	10.36
764.222	10.13
764.401	9.6
764.579	9.21
764.758	8.84
764.936	9.84
765.114	9.25
765.293	10.05
765.471	9.8
765.65	9.74
765.828	9.86
766.006	9.68
766.184	8.93
766.363	10.02
766.541	9.72
766.719	10.12
766.898	9.28
767.076	9.17
767.254	9.8
767.432	10.26
767.61	10.39
767.788	9.53
767.967	9.37
768.145	10.6
768.323	9.33
768.501	9.55
768.679	9.75
768.857	9.94
769.035	10.75
769.213	11.15
769.391	10.68
769.569	9.19
769.747	10.58
769.925	10.77
770.103	10.45
770.281	11.92
770.459	13.29
770.636	12.37
770.814	11.74
770.992	12.48
771.17	9.67
771.348	11.3
771.525	11.61
771.703	9.15
771.881	9.73
772.059	10.27
772.236	10.05
772.414	8.36
772.592	10.12
772.769	11.62
772.947	9.29
773.125	12.18
773.302	10.44
773.48	12.08
773.657	13.52
773.835	12.87
774.013	12.27
774.19	11.97
774.368	12.66
774.545	11.45
774.723	10.52
774.9	12.22
775.077	9.99
775.255	10.8
775.432	10.95
775.61	12.2
775.787	10.32
775.964	10.16
776.142	10.27
776.319	9.69
776.496	10.17
776.674	9.04
776.851	8.9
777.028	10.83
777.205	10.24
777.382	9.52
777.56	7.21
777.737	6.96
777.914	6.65
778.091	5.2
778.268	6.91
778.445	7.4
778.622	7.44
778.8	7.83
778.977	5.02
779.154	3.6
779.331	3.18
779.508	6.04
779.685	8.77
779.862	10.5
780.038	14.75
780.215	13.3
780.392	13.37
780.569	14.2
780.746	12.72
780.923	15.1
781.1	16.06
781.277	15.08
781.453	13.72
781.63	9.65
781.807	8.91
781.984	5.41
782.16	7.01
782.337	4.48
782.514	3.75
782.691	6.82
782.867	6.04
783.044	5.42
783.221	9.92
783.397	8.48
783.574	12.18
783.75	9.08
783.927	10.93
784.103	11.94
784.28	13.11
784.456	14.33
784.633	12.82
784.809	13.51
784.986	14.25
785.162	9.89
785.339	9.42
785.515	7.97
785.692	12.75
785.868	10.25
786.044	4.56
786.221	5.15
786.397	4.38
786.573	7.96
786.749	8.61
786.926	8.25
787.102	8.34
787.278	9.37
787.454	9.25
787.631	7.82
787.807	7.95
787.983	9.67
788.159	6.84
788.335	5.34
788.511	1.35
788.687	1.65
788.863	0.26
789.039	0.78
789.216	-0.64
789.392	2.44
789.568	1.19
789.744	3.71
789.919	6.4
790.095	10.38
790.271	10.64
790.447	12.65
790.623	11.4
790.799	12.11
790.975	11.24
791.151	12.29
791.327	6.6
791.502	5.79
791.678	4.61
791.854	1.39
792.03	-0.78
792.205	0.65
792.381	0.28
792.557	-2.79
792.733	-2.75
792.908	-3.95
793.084	-2.73
793.259	3.93
793.435	7.17
793.611	5.1
793.786	6.81
793.962	8.29
794.137	9.24
794.313	8.63
794.488	8.61
794.664	10.56
794.839	9.87
795.015	8.48
795.19	3.87
795.366	1.77
795.541	2.81
795.716	0.02
795.892	-1
796.067	0.24
796.242	-1.06
796.418	-0.11
796.593	1.27
796.768	3.96
796.944	3.95
797.119	6.27
797.294	8.25
797.469	8.26
797.644	9.81
797.82	11.94
797.995	14.73
798.17	14.46
798.345	17.49
798.52	14.08
798.695	10.52
798.87	12.36
799.045	12.16
799.22	10.77
799.395	12.19
799.57	15.34
799.745	13.45
799.92	8.15
800.095	8.68
800.27	4.86
800.445	9.51
800.62	15.29
800.795	18.5
800.97	18.58
801.145	19.18
801.319	13.56
801.494	7.99
801.669	6.82
801.844	8.24
802.018	9.41
802.193	12.15
802.368	5.74
802.543	2.37
802.717	-0.05
802.892	1.89
803.067	-2.69
803.241	0.86
803.416	1.14
803.59	4.24
803.765	5.64
803.94	6.02
804.114	3.66
804.289	8.27
804.463	9
804.638	8.14
804.812	8.65
804.986	8.6
805.161	11.64
805.335	14.16
805.51	13.04
805.684	9.45
805.858	8.21
806.033	6.06
806.207	6.74
806.381	6.75
806.556	9.28
806.73	7.2
806.904	9.32
807.078	9.96
807.253	7.94
807.427	9.21
807.601	9.16
807.775	9.53
807.949	14.1
808.123	11.17
808.298	9.65
808.472	6.16
808.646	6.3
808.82	8.32
808.994	7.65
809.168	9.23
809.342	9.76
809.516	8.94
809.69	15.27
809.864	14.09
810.038	13.36
810.212	12.05
810.385	11
810.559	15.73
810.733	18.61
810.907	18.23
811.081	19.18
811.255	15.78
811.428	16.22
811.602	10.53
811.776	8.54
811.95	7.96
812.123	8.43
812.297	10.2
812.471	-1.3
812.644	-2.19
812.818	-0.87
812.992	-0.23
813.165	-0.57
813.339	3.1
813.512	6.51
813.686	7.34
813.86	11.43
814.033	13.48
814.207	17.09
814.38	23.3
814.554	21.96
814.727	21.09
814.9	17.45
815.074	21.34
815.247	18.44
815.421	17.37
815.594	16.59
815.767	17.55
815.941	18.26
816.114	16.56
816.287	14.43
816.46	17.44
816.634	16.36
816.807	18.29
816.98	16.12
817.153	17.65
817.327	16.35
817.5	19.85
817.673	17.75
817.846	15.44
818.019	10.15
818.192	9.06
818.365	3
818.538	1.82
818.711	4.94
818.884	6.45
819.057	5.48
819.23	8.73
819.403	7.32
819.576	10.47
819.749	9.28
819.922	11.81
820.095	10.57
820.268	13.84
820.441	12.52
820.614	9.41
820.786	8.22
820.959	9.31
821.132	8.62
821.305	7.88
821.477	7.2
821.65	9.97
821.823	9.68
821.996	10.55
822.168	10.22
822.341	12
822.514	12.84
822.686	12.92
822.859	12.64
823.031	12.35
823.204	12.84
823.376	13.38
823.549	11.69
823.722	12.05
823.894	11.79
824.067	11.25
824.239	9.62
824.411	9.15
824.584	9.66
824.756	9.62
824.929	9.58
825.101	8.91
825.273	8.13
825.446	10.38
825.618	10.42
825.79	11.16
825.963	12.23
826.135	13.43
826.307	13.88
826.479	13.58
826.652	14.65
826.824	14.82
826.996	14.23
827.168	14.31
827.34	13.06
827.512	12.18
827.684	12.62
827.856	11.9
828.029	12.05
828.201	12.72
828.373	12.03
828.545	12.03
828.717	12.62
828.889	14.79
829.061	15.31
829.232	15.76
829.404	17.48
829.576	16.75
829.748	19.84
829.92	19.64
830.092	18.1
830.264	18.89
830.436	20.08
830.607	17.21
830.779	16.23
830.951	14.22
831.123	15.24
831.294	14.38
831.466	14.21
831.638	9.42
831.809	4.42
831.981	5.72
832.153	5.8
832.324	3.06
832.496	6.17
832.667	9.01
832.839	11.41
833.011	13.57
833.182	10.92
833.354	10.48
833.525	12.91
833.697	16.49
833.868	15.79
834.039	14.45
834.211	13.4
834.382	12.89
834.554	10.31
834.725	9.78
834.896	7.17
835.068	9.12
835.239	10.02
835.41	8.59
835.581	6.63
835.753	5.69
835.924	6.7
836.095	6.82
836.266	7.31
836.438	5.52
836.609	5.07
836.78	4.29
836.951	7.87
837.122	5.26
837.293	3.35
837.464	3.69
837.635	5.34
837.806	8.19
837.977	7.05
838.148	10.42
838.319	12.78
838.49	10.67
838.661	12.25
838.832	4.79
839.003	5.53
839.174	10.71
839.345	15.04
839.516	10.36
839.687	10.41
839.857	15.63
840.028	9.04
840.199	9.9
840.37	16.51
840.54	10.76
840.711	18.49
840.882	19.97
841.053	13.46
841.223	15.24
841.394	20.8
841.564	20.68
841.735	17.02
841.906	20.45
842.076	21.94
842.247	24.55
842.417	29.29
842.588	23.96
842.758	24.55
842.929	32.77
843.099	30.99
843.27	22.25
843.44	4.75
843.611	14.32
843.781	8.91
843.951	2.28
844.122	-6.28
844.292	2.01
844.462	0.97
844.633	8.23
844.803	10.56
844.973	9.49
845.144	14.71
845.314	27.64
845.484	23.14
845.654	24.01
845.824	25.16
845.995	26.5
846.165	27.51
846.335	32.67
846.505	27.04
846.675	26.5
846.845	23.3
847.015	15.94
847.185	0.34
847.355	0.7
847.525	-6.84
847.695	-8.11
847.865	-15.2
848.035	-16.32
848.205	-31.94
848.375	-25.5
848.545	-39.3
848.715	-31.76
848.884	-37.9
849.054	-54.63
849.224	-44.31
849.394	-36.96
849.564	-43.3
849.733	-42.27
849.903	-40.67
850.073	-44.89
850.243	-56.75
850.412	-48.92
850.582	-41.58
850.752	-30.93
850.921	-15.96
851.091	-16.29
851.26	-29.38
851.43	-6.94
851.599	-10.99
851.769	-31.71
851.939	-42.03
852.108	-22.77
852.278	-21.61
852.447	-31.73
852.616	-29.78
852.786	-49.84
852.955	-46.85
853.125	-36.64
853.294	-54.49
853.463	-62.66
853.633	-28.92
853.802	-6.22
853.971	-0.3
854.141	4.3
854.31	6.98
854.479	1.88
854.648	13.07
854.818	11.5
854.987	9.88
855.156	-0.76
855.325	8.79
855.494	2.24
855.663	-9.25
855.832	-13.45
856.001	-40.85
856.171	-58.39
856.34	-46.39
856.509	-75.77
856.678	-98.8
856.847	-89.56
857.016	-32.53
857.185	-51.49
857.353	-46.13
857.522	-49.53
857.691	-29.71
857.86	-11.84
858.029	1.18
858.198	1.71
858.367	-3.05
858.535	6.15
858.704	8.49
858.873	7.52
859.042	6.35
859.21	4.49
859.379	10.81
859.548	-3.95
859.717	-7.95
859.885	-19.18
860.054	-25.21
860.222	-35.18
860.391	-42.61
860.56	-45.28
860.728	-70.01
860.897	-66.53
861.065	-60.48
861.234	-73.03
861.402	-72.56
861.571	-62.14
861.739	-66.91
861.908	-51.81
862.076	-27.41
862.244	-14.65
862.413	-15.15
862.581	1.99
862.749	-3.72
862.918	-5.22
863.086	-8.54
863.254	-7.07
863.423	-15.68
863.591	-2.69
863.759	-8.79
863.927	-16.72
864.096	-23.75
864.264	-27.42
864.432	-40.68
864.6	-29.36
864.768	-37.05
864.936	-25.77
865.104	-21.01
865.272	-6.49
865.44	-16.9
865.608	-9.61
865.776	8.3
865.944	8.69
866.112	22.71
866.28	22.58
866.448	15.03
866.616	23.01
866.784	22.42
866.952	12.8
867.12	7.12
867.288	15.49
867.455	15.18
867.623	14.24
867.791	14.76
867.959	12.16
868.127	6.44
868.294	17.15
868.462	17.23
868.63	13.54
868.797	14.98
868.965	15.5
869.133	8.97
869.3	9.22
869.468	5.94
869.636	-3.33
869.803	-16.21
869.971	-14.56
870.138	-37.19
870.306	-51.32
870.473	-41.63
870.641	-13.26
870.808	-37.79
870.975	-13.52
871.143	-25.13
871.31	-16.01
871.478	-0.27
871.645	14.83
871.812	18.08
871.98	27.85
872.147	23.41
872.314	24.7
872.482	29.96
872.649	53.83
872.816	49.74
872.983	47.77
873.15	45.56
873.318	51.1
873.485	52.11
873.652	53.79
873.819	45.76
873.986	54.51
874.153	44.47
874.32	44.91
874.487	35.78
874.654	31.85
874.821	39.76
874.988	42.73
875.155	35.87
875.322	35.47
875.489	37.48
875.656	36.32
875.823	26.63
875.99	33.51
876.157	27.86
876.324	33.96
876.49	29.43
876.657	13.72
876.824	14.2
876.991	24.26
877.157	19.09
877.324	11.71
877.491	6.51
877.658	12.8
877.824	23.53
877.991	22.74
878.157	18.12
878.324	18.49
878.491	23.47
878.657	13.58
878.824	-10.26
878.99	5.32
879.157	21.72
879.323	24.04
879.49	14.24
879.656	2.71
879.823	9.17
879.989	17.95
880.156	19.12
880.322	12.71
880.488	13.05
880.655	13.01
880.821	15.88
880.987	0.76
881.154	6.85
881.32	31.18
881.486	25.3
881.652	17.47
881.819	6.61
881.985	8.21
882.151	8.75
882.317	10.57
882.483	13.29
882.649	6.2
882.816	11.95
882.982	11.76
883.148	8.18
883.314	9.35
883.48	14.02
883.646	12.84
883.812	9.32
883.978	13.03
884.144	12.92
884.31	16.24
884.476	18.64
884.642	13.89
884.807	13.92
884.973	14.33
885.139	10.73
885.305	7.06
885.471	7.36
885.637	13.03
885.802	13.66
885.968	12.96
886.134	6.74
886.3	9.12
886.465	8.62
886.631	7.4
886.797	3.91
886.962	10.18
887.128	3.65
887.293	1.55
887.459	0.09
887.625	-11.49
887.79	-17.31
887.956	-15.9
888.121	-22.59
888.287	-18.89
888.452	-27.39
888.618	-29.62
888.783	-62.9
