Data from 2938074_Reflection_3.txt Node
Date: Sat Jul 11 20:29:35 EDT 2015
User: robert
Spectrometer: USB4E03001
Autoset integration time: false
Trigger mode: 4
Integration Time (sec): 1.000000E-1
Scans to average: 10
Electric dark correction enabled: true
Nonlinearity correction enabled: false
Boxcar width: 5
Stray light correction enabled: false
XAxis mode: Wavelengths
Stop averaging: false
Number of Pixels in Spectrum: 3648
>>>>>Begin Spectral Data<<<<<
177.566	-147.8
177.785	-164.32
178.005	-18.07
178.225	-10.63
178.445	24.3
178.665	13.43
178.885	56.3
179.105	116.33
179.324	193.69
179.544	-456.68
179.764	-14.34
179.984	-25.53
180.204	-26.18
180.423	-14.08
180.643	9.05
180.863	30.08
181.083	27.15
181.302	-19.22
181.522	-26.62
181.742	-23.21
181.961	-20.88
182.181	461.38
182.401	-5.55
182.621	31.89
182.84	22.38
183.06	70.73
183.279	662.91
183.499	134.69
183.719	192.34
183.938	176.95
184.158	240.57
184.377	267.75
184.597	213.78
184.816	297.33
185.036	504.86
185.256	338.28
185.475	95.38
185.695	67.16
185.914	93.4
186.134	49.38
186.353	57.23
186.572	75.22
186.792	75.9
187.011	57.54
187.231	70.96
187.45	109.63
187.67	74.02
187.889	119.48
188.108	127.34
188.328	142.59
188.547	181.81
188.766	99.39
188.986	96.18
189.205	69.25
189.424	68.64
189.644	74.65
189.863	38.34
190.082	78.78
190.302	39.17
190.521	50.32
190.74	47.06
190.959	72.34
191.178	79.45
191.398	72.57
191.617	80.38
191.836	72.71
192.055	72.34
192.274	89.02
192.494	57.35
192.713	41.58
192.932	42.43
193.151	23.72
193.37	-15.21
193.589	3.28
193.808	-9.4
194.027	-57.49
194.246	-31.01
194.465	-10.42
194.685	-40.37
194.904	-16.28
195.123	-10.97
195.342	-6.49
195.561	-5.1
195.78	10.61
195.999	43.9
196.218	71.5
196.436	79.55
196.655	71.94
196.874	78.64
197.093	77.91
197.312	63.98
197.531	104.46
197.75	103.05
197.969	87.18
198.188	88.37
198.407	40.24
198.625	-32.77
198.844	47.08
199.063	83.44
199.282	97.96
199.501	238.56
199.719	-85.68
199.938	-10.58
200.157	65.45
200.376	-59.63
200.594	230.7
200.813	4562.22
201.032	-354.87
201.251	-52.09
201.469	3.47
201.688	-19.66
201.907	-34.05
202.125	151.32
202.344	763.33
202.563	327.14
202.781	152.55
203	-443.04
203.218	4.4
203.437	30.02
203.656	15.69
203.874	39.78
204.093	41.39
204.311	56.62
204.53	47.1
204.748	53.99
204.967	56.44
205.185	40.25
205.404	29.77
205.622	31.85
205.841	31.24
206.059	30.4
206.278	26.96
206.496	26.92
206.715	18.58
206.933	22.35
207.151	11.89
207.37	12.73
207.588	19.28
207.806	20.65
208.025	40.02
208.243	72.16
208.461	50.55
208.68	71.74
208.898	43.21
209.116	29.96
209.335	49.42
209.553	37.87
209.771	23.95
209.989	50.92
210.208	52.59
210.426	151.93
210.644	69.73
210.862	-6.1
211.081	30.5
211.299	2.75
211.517	-139.53
211.735	-280.66
211.953	-185.22
212.171	645.77
212.39	-161.04
212.608	-245.05
212.826	-3092.39
213.044	132.24
213.262	197.06
213.48	71.73
213.698	77.16
213.916	80.38
214.134	-0.97
214.352	72.37
214.57	330.87
214.788	-11.41
215.006	-53.14
215.224	-34.52
215.442	-15.39
215.66	9.98
215.878	0.6
216.096	-6.8
216.314	-55.17
216.532	-47.68
216.75	26.2
216.968	-7.03
217.185	145.07
217.403	378.57
217.621	396.7
217.839	152.11
218.057	100.19
218.275	99.98
218.492	89.59
218.71	84.95
218.928	69.77
219.146	50.35
219.363	47.28
219.581	23.74
219.799	4.31
220.017	25.39
220.234	6.17
220.452	-19.7
220.67	-3.57
220.887	9.11
221.105	-52.64
221.323	-41.69
221.54	-26.42
221.758	-42.61
221.976	-10.26
222.193	5.21
222.411	3.31
222.629	-13.01
222.846	8.98
223.064	19.8
223.281	23.51
223.499	44.81
223.716	32.89
223.934	11.34
224.151	15.24
224.369	14.63
224.586	15.75
224.804	17.76
225.021	20.19
225.239	12.63
225.456	3.87
225.674	1.23
225.891	3.94
226.108	11.8
226.326	18.77
226.543	25.3
226.76	29.27
226.978	18.1
227.195	20.73
227.413	19.75
227.63	20.59
227.847	20.87
228.064	14.86
228.282	13.75
228.499	9.09
228.716	6.94
228.934	5.69
229.151	1.74
229.368	4.33
229.585	3.8
229.802	5.87
230.02	4.6
230.237	5.51
230.454	4.62
230.671	5.06
230.888	6.56
231.105	7.21
231.323	4.85
231.54	11.48
231.757	9.62
231.974	9.97
232.191	9.56
232.408	8.38
232.625	6.56
232.842	7.14
233.059	9.07
233.276	7.29
233.493	7.9
233.71	7.73
233.927	6.56
234.144	7.14
234.361	9.64
234.578	1.66
234.795	5.05
235.012	6
235.229	11.9
235.446	10.76
235.663	11.53
235.879	9.01
236.096	8.45
236.313	2.15
236.53	-0.78
236.747	-6.66
236.964	-2.55
237.181	-2.01
237.397	1.17
237.614	-0.57
237.831	-5.26
238.048	-4.33
238.264	-2.63
238.481	1.54
238.698	7
238.915	11.13
239.131	15.31
239.348	15.42
239.565	11.47
239.781	7.95
239.998	8.54
240.215	12.33
240.431	12.46
240.648	11.4
240.865	10.52
241.081	12.2
241.298	11.89
241.514	8.92
241.731	8.97
241.947	8.35
242.164	7.97
242.38	7.56
242.597	6.59
242.814	5.71
243.03	5.55
243.246	5.63
243.463	3.58
243.679	4.42
243.896	6.01
244.112	6.09
244.329	7.42
244.545	8.48
244.762	8.47
244.978	6.97
245.194	7.42
245.411	9.26
245.627	8.46
245.843	9.23
246.06	6.94
246.276	6.16
246.492	6.29
246.709	5.49
246.925	5.33
247.141	5.2
247.357	6.13
247.574	6.59
247.79	6.11
248.006	6.2
248.222	5.93
248.439	5.79
248.655	5.6
248.871	5.42
249.087	4.97
249.303	5.56
249.519	6.64
249.736	6.06
249.952	5.23
250.168	5.55
250.384	6.34
250.6	6.06
250.816	6.24
251.032	5.75
251.248	5.69
251.464	6.96
251.68	6.33
251.896	5.84
252.112	4.84
252.328	4.54
252.544	3.99
252.76	3.1
252.976	3.27
253.192	3.56
253.408	3.57
253.624	3.76
253.84	4.61
254.056	4.35
254.272	2.81
254.487	5.06
254.703	7.72
254.919	7.92
255.135	9.18
255.351	8.12
255.567	8.89
255.782	9.41
255.998	10.99
256.214	13.19
256.43	10.98
256.646	12.49
256.861	12.91
257.077	12.63
257.293	13.15
257.508	11.75
257.724	12.2
257.94	13.23
258.155	12
258.371	10.84
258.587	8.46
258.802	8.96
259.018	7.61
259.234	6.82
259.449	5.34
259.665	4.87
259.88	4.9
260.096	4.92
260.312	3.87
260.527	4.47
260.743	4.48
260.958	5.01
261.174	4.63
261.389	4.98
261.605	4.87
261.82	5.72
262.036	5.39
262.251	5.9
262.466	5.93
262.682	6.88
262.897	6.79
263.113	7
263.328	6.55
263.543	6.24
263.759	5.02
263.974	6
264.189	6.18
264.405	6.43
264.62	5.09
264.835	6.26
265.051	5.8
265.266	5.5
265.481	4.81
265.696	4.69
265.912	5.5
266.127	5.02
266.342	4.68
266.557	4.29
266.773	5.34
266.988	4.5
267.203	3.05
267.418	3.85
267.633	2.32
267.848	1.19
268.064	0.91
268.279	0.47
268.494	2.7
268.709	1.91
268.924	0.93
269.139	-0.46
269.354	0.71
269.569	0.57
269.784	-0.06
269.999	0.69
270.214	1.69
270.429	1.48
270.644	2
270.859	1
271.074	1.23
271.289	1.94
271.504	2.48
271.719	2.17
271.934	2.42
272.149	3.64
272.363	4.65
272.578	5.37
272.793	5.41
273.008	4.95
273.223	6.38
273.438	7.05
273.653	6.01
273.867	5.52
274.082	5.87
274.297	5.98
274.512	6.09
274.726	5.41
274.941	4.43
275.156	4.93
275.371	4.91
275.585	3.73
275.8	2.13
276.015	3.36
276.229	4.28
276.444	3.81
276.659	4.53
276.873	4.24
277.088	3.56
277.302	4.08
277.517	3.99
277.732	4.74
277.946	4.34
278.161	5.62
278.375	5.59
278.59	6.04
278.804	7.3
279.019	7.61
279.233	5.88
279.448	7.43
279.662	6.83
279.877	6.3
280.091	6.58
280.306	8.11
280.52	7.57
280.735	7.79
280.949	9.03
281.163	7.79
281.378	7.34
281.592	7.73
281.806	6.58
282.021	6.14
282.235	6.51
282.449	6.26
282.664	5.38
282.878	6.26
283.092	6.45
283.307	4.23
283.521	4.04
283.735	2.95
283.949	2.1
284.164	2.36
284.378	3.58
284.592	3.48
284.806	4.14
285.02	3.59
285.234	3.62
285.449	3.56
285.663	4.19
285.877	4.78
286.091	5.11
286.305	5.78
286.519	5.62
286.733	6.05
286.947	6.96
287.161	6.66
287.375	6.6
287.589	6.47
287.803	6.01
288.017	6.76
288.231	7.38
288.445	7.95
288.659	8.45
288.873	9.56
289.087	8.8
289.301	8.12
289.515	9.09
289.729	9.39
289.943	9.58
290.157	9.77
290.371	9.6
290.584	9
290.798	8.84
291.012	7.9
291.226	8.13
291.44	7.54
291.654	7.62
291.867	6.74
292.081	6.46
292.295	7.56
292.509	7.82
292.722	6.11
292.936	6.63
293.15	7.71
293.364	8.1
293.577	7.08
293.791	7.45
294.005	7.17
294.218	6.66
294.432	6.72
294.645	5.18
294.859	5.2
295.073	5.63
295.286	5.6
295.5	4.95
295.713	5.28
295.927	5.08
296.14	6.42
296.354	6.59
296.568	7
296.781	6.97
296.994	6.97
297.208	7.8
297.421	8.71
297.635	8.5
297.848	8.86
298.062	9.34
298.275	10.08
298.489	9.64
298.702	10.04
298.915	9.4
299.129	10.13
299.342	9.71
299.555	9.66
299.769	8.84
299.982	9.4
300.195	8.76
300.409	9.06
300.622	9.71
300.835	10.45
301.048	10.68
301.262	12.04
301.475	12.38
301.688	13.27
301.901	12.08
302.115	12.15
302.328	11.35
302.541	11.69
302.754	10.63
302.967	9.56
303.18	9.43
303.393	10.27
303.607	9.28
303.82	7.94
304.033	7.26
304.246	8.88
304.459	11.15
304.672	10.74
304.885	9.81
305.098	9.89
305.311	9.13
305.524	7.97
305.737	5.44
305.95	6.75
306.163	6.72
306.376	6.68
306.589	4.67
306.802	3.06
307.015	5.34
307.228	6.79
307.44	7.18
307.653	8.55
307.866	8.64
308.079	7.83
308.292	6.32
308.505	8.6
308.718	9.99
308.93	11.19
309.143	11.56
309.356	11.33
309.569	10.99
309.781	9.93
309.994	9.73
310.207	10.03
310.42	11.99
310.632	13.25
310.845	12.18
311.058	11.4
311.27	10.31
311.483	9.66
311.696	9.39
311.908	9.84
312.121	11.04
312.333	10.32
312.546	10.89
312.759	10.25
312.971	9.2
313.184	10.14
313.396	9.95
313.609	11.51
313.821	11.98
314.034	11
314.246	10.64
314.459	9.46
314.671	10.52
314.884	8.49
315.096	8.13
315.309	8.73
315.521	7.69
315.733	9.46
315.946	7.83
316.158	8.11
316.371	8.79
316.583	9.37
316.795	10.15
317.008	9.63
317.22	11.98
317.432	12.22
317.644	10.97
317.857	11.89
318.069	10.49
318.281	11.41
318.494	9.23
318.706	8.57
318.918	7.71
319.13	9.25
319.342	10.36
319.555	9.72
319.767	9.52
319.979	12.02
320.191	11
320.403	11.13
320.615	11.92
320.827	14.39
321.039	15.42
321.252	15.36
321.464	16.09
321.676	15.05
321.888	15.49
322.1	15.81
322.312	14.67
322.524	14.53
322.736	14.87
322.948	14.57
323.16	13.38
323.372	13.96
323.584	14.51
323.796	12.63
324.007	13.22
324.219	12.82
324.431	13.07
324.643	11.94
324.855	11.93
325.067	11.8
325.279	11.14
325.491	11.2
325.702	11.34
325.914	12.42
326.126	11.82
326.338	12.24
326.55	12.51
326.761	11.77
326.973	11.8
327.185	11.89
327.396	12.44
327.608	13.8
327.82	15.33
328.032	14.7
328.243	13.48
328.455	14.65
328.666	14.37
328.878	15.05
329.09	15.74
329.301	16.59
329.513	17.8
329.725	17.17
329.936	15.95
330.148	15.52
330.359	16.6
330.571	18.81
330.782	19.24
330.994	18.98
331.205	18.15
331.417	18.13
331.628	19.03
331.84	19.72
332.051	20.16
332.262	21.05
332.474	21.68
332.685	22.05
332.897	21.39
333.108	22.62
333.319	23.74
333.531	24.57
333.742	25.03
333.953	25.63
334.165	24.97
334.376	26.3
334.587	26.95
334.799	26.92
335.01	27.01
335.221	25.95
335.432	25.34
335.644	25.28
335.855	25.67
336.066	27.05
336.277	26.69
336.488	25.97
336.7	24.85
336.911	24.38
337.122	24.75
337.333	24.74
337.544	25.66
337.755	26.02
337.966	26.75
338.177	26.06
338.388	25.63
338.599	25.51
338.811	26.13
339.022	26.09
339.233	25.87
339.444	25.6
339.655	26.07
339.866	27.1
340.076	26.97
340.287	27.42
340.498	27.36
340.709	26.97
340.92	27.08
341.131	27.25
341.342	27.38
341.553	27.93
341.764	28.41
341.975	27.45
342.185	27.47
342.396	28.44
342.607	27.76
342.818	27.93
343.029	28.06
343.239	27.79
343.45	28.69
343.661	30.38
343.872	30.1
344.082	29.44
344.293	30.27
344.504	30.3
344.714	29.21
344.925	29.26
345.136	28.6
345.346	29.03
345.557	30.73
345.768	30.13
345.978	29.44
346.189	29.88
346.399	30.28
346.61	30.06
346.821	29.85
347.031	29.77
347.242	28.86
347.452	29.94
347.663	29.88
347.873	29.21
348.084	30.49
348.294	30.81
348.504	30.25
348.715	30.5
348.925	30.65
349.136	30.71
349.346	30.39
349.557	31.12
349.767	30.86
349.977	30.49
350.188	29.99
350.398	30.02
350.608	30.02
350.819	30.11
351.029	29.55
351.239	30.04
351.449	30.25
351.66	31.11
351.87	31.17
352.08	31.4
352.29	31.54
352.501	31.87
352.711	30.88
352.921	31.36
353.131	32.6
353.341	32.9
353.552	32.68
353.762	32.25
353.972	32.33
354.182	32.66
354.392	33.12
354.602	33.29
354.812	33.07
355.022	32.82
355.232	31.88
355.442	31.79
355.652	32.01
355.862	29.91
356.072	29.8
356.282	29.61
356.492	30.23
356.702	29.52
356.912	29.86
357.122	29.96
357.332	30.43
357.542	30.74
357.752	30.05
357.962	30.18
358.171	31.63
358.381	31.47
358.591	31.38
358.801	30.03
359.011	30.42
359.221	30.42
359.43	29.96
359.64	29.98
359.85	29.5
360.06	28.95
360.269	28.14
360.479	27.86
360.689	27.74
360.899	27.86
361.108	28.67
361.318	28.53
361.528	27.46
361.737	28.79
361.947	28.08
362.156	28.23
362.366	29.22
362.576	29.63
362.785	29.5
362.995	29.52
363.204	29.29
363.414	29.09
363.623	29.4
363.833	30.09
364.042	28.89
364.252	29.7
364.461	30.37
364.671	30.17
364.88	29.96
365.09	31.15
365.299	30.96
365.509	30.89
365.718	30.03
365.927	29.47
366.137	29.26
366.346	28.97
366.555	29.71
366.765	29.63
366.974	29.07
367.183	28.99
367.393	28.75
367.602	29.34
367.811	30.13
368.021	31.32
368.23	31.98
368.439	32.89
368.648	33.52
368.857	32.85
369.067	33.16
369.276	33.29
369.485	33.52
369.694	33.21
369.903	32.73
370.112	32.33
370.321	31.87
370.531	31.43
370.74	31.44
370.949	30.5
371.158	30.33
371.367	30.05
371.576	30.08
371.785	30.02
371.994	30.11
372.203	30.13
372.412	30.55
372.621	31.04
372.83	31.32
373.039	30.57
373.248	31.39
373.457	31.39
373.666	31.43
373.874	31.53
374.083	32.29
374.292	31.82
374.501	31.49
374.71	30.84
374.919	30.09
375.128	30.01
375.336	30.04
375.545	29.51
375.754	29.51
375.963	29.14
376.171	29.02
376.38	28.76
376.589	29.2
376.798	29.82
377.006	29.58
377.215	29.15
377.424	29.16
377.632	28.9
377.841	29.35
378.05	29.14
378.258	28.78
378.467	28.8
378.675	28.69
378.884	28.69
379.093	28.25
379.301	28.37
379.51	28.86
379.718	28.69
379.927	29.08
380.135	28.34
380.344	28.56
380.552	29.2
380.761	29.28
380.969	29.29
381.177	28.97
381.386	29.4
381.594	29.37
381.803	29.06
382.011	29.23
382.219	29.37
382.428	29.55
382.636	29.66
382.845	29.26
383.053	29.24
383.261	28.68
383.469	28.62
383.678	28.33
383.886	28.2
384.094	28.11
384.302	27.86
384.511	27.78
384.719	27.99
384.927	27.59
385.135	27.43
385.343	27.12
385.552	27.46
385.76	27.2
385.968	27.09
386.176	27.6
386.384	27.8
386.592	27.77
386.8	27.77
387.008	27.74
387.216	28.09
387.424	28.31
387.633	28.13
387.841	27.81
388.049	27.61
388.257	27.33
388.465	26.52
388.672	26.52
388.88	26.54
389.088	26.43
389.296	25.99
389.504	26.04
389.712	25.5
389.92	25.8
390.128	25.84
390.336	26.25
390.544	26.38
390.751	26.76
390.959	26.78
391.167	27.27
391.375	27.25
391.583	27.42
391.79	27.25
391.998	27.84
392.206	28.01
392.414	28.13
392.621	27.96
392.829	27.93
393.037	28.08
393.244	28.23
393.452	27.64
393.66	27.23
393.867	27.41
394.075	27.61
394.283	27.69
394.49	27.45
394.698	27.55
394.905	27.92
395.113	27.98
395.32	27.81
395.528	27.68
395.735	28.06
395.943	28.39
396.15	28.6
396.358	28.65
396.565	28.29
396.773	28.65
396.98	28.84
397.188	28.68
397.395	29.07
397.602	29.33
397.81	29.44
398.017	29.41
398.225	29.54
398.432	29.32
398.639	29.32
398.847	29.28
399.054	29.28
399.261	29.41
399.468	29.43
399.676	29.21
399.883	29.03
400.09	29.08
400.297	29.34
400.505	29.44
400.712	29.68
400.919	29.66
401.126	29.72
401.333	29.45
401.54	28.82
401.748	28.58
401.955	28.55
402.162	28.63
402.369	28.7
402.576	28.59
402.783	28.68
402.99	28.74
403.197	28.67
403.404	28.83
403.611	29.02
403.818	29.25
404.025	29.54
404.232	29.41
404.439	29.34
404.646	29.47
404.853	29.23
405.06	29.23
405.267	29.18
405.474	29.24
405.681	29.4
405.887	29.24
406.094	29.45
406.301	29.55
406.508	29.95
406.715	30.33
406.922	30.07
407.128	30.18
407.335	30.21
407.542	30.24
407.749	30.13
407.955	30.12
408.162	30.5
408.369	30.43
408.575	30.42
408.782	30.33
408.989	29.99
409.195	29.97
409.402	30.01
409.609	29.83
409.815	30.13
410.022	30.45
410.228	30.09
410.435	29.9
410.642	30.03
410.848	29.99
411.055	30.18
411.261	30.35
411.468	30.23
411.674	29.92
411.881	29.83
412.087	29.49
412.294	29.18
412.5	29.54
412.706	29.23
412.913	29.23
413.119	29
413.326	28.75
413.532	28.62
413.738	28.85
413.945	29.18
414.151	29.05
414.357	29.06
414.564	29.07
414.77	28.95
414.976	29.16
415.182	28.91
415.389	29.05
415.595	28.98
415.801	28.96
416.007	28.71
416.214	28.74
416.42	28.98
416.626	28.96
416.832	28.66
417.038	28.41
417.244	28.47
417.45	28.34
417.657	28.28
417.863	28.27
418.069	28.17
418.275	28.35
418.481	28.43
418.687	28.52
418.893	28.59
419.099	28.67
419.305	28.86
419.511	28.79
419.717	28.82
419.923	28.75
420.129	28.86
420.335	28.99
420.541	28.93
420.746	28.77
420.952	28.61
421.158	28.52
421.364	28.58
421.57	28.61
421.776	28.56
421.982	28.4
422.187	28.55
422.393	28.52
422.599	28.36
422.805	28.36
423.01	28.3
423.216	28.33
423.422	28.37
423.628	28.34
423.833	28.14
424.039	28.08
424.245	28.24
424.45	28.18
424.656	28.14
424.862	28.22
425.067	28.22
425.273	28.2
425.478	28.19
425.684	28.16
425.889	28.22
426.095	28.32
426.301	28.37
426.506	28.43
426.712	28.22
426.917	28.35
427.123	28.33
427.328	28.36
427.533	28.51
427.739	28.45
427.944	28.15
428.15	28.06
428.355	27.8
428.561	27.82
428.766	27.68
428.971	27.97
429.177	27.77
429.382	27.68
429.587	27.64
429.793	27.48
429.998	27.82
430.203	28.17
430.408	28.31
430.614	28.5
430.819	28.58
431.024	28.6
431.229	28.61
431.434	28.63
431.64	28.58
431.845	28.63
432.05	28.84
432.255	28.65
432.46	28.48
432.665	28.24
432.87	28.36
433.076	28.1
433.281	28.06
433.486	27.99
433.691	28.1
433.896	28.29
434.101	28.47
434.306	28.34
434.511	28.34
434.716	28.51
434.921	28.79
435.126	28.84
435.331	29.04
435.535	29.24
435.74	29.19
435.945	28.98
436.15	28.8
436.355	28.44
436.56	28.49
436.765	28.26
436.97	27.95
437.174	27.63
437.379	27.41
437.584	27.5
437.789	27.36
437.993	27.44
438.198	27.58
438.403	27.48
438.608	27.56
438.812	27.53
439.017	27.56
439.222	27.85
439.426	27.97
439.631	28
439.836	28.15
440.04	28.22
440.245	28.14
440.45	27.89
440.654	27.99
440.859	27.95
441.063	28.06
441.268	28.31
441.472	28.21
441.677	28.14
441.881	28.37
442.086	28.19
442.29	28.09
442.495	28.19
442.699	28.45
442.904	28.5
443.108	28.44
443.312	28.36
443.517	28.21
443.721	28.32
443.925	28.34
444.13	28.04
444.334	28.09
444.538	28.17
444.743	28.11
444.947	28.11
445.151	28.17
445.356	28.35
445.56	28.24
445.764	28.14
445.968	28.05
446.173	28.06
446.377	28.07
446.581	28.09
446.785	28.07
446.989	27.91
447.193	27.8
447.398	27.68
447.602	27.63
447.806	27.62
448.01	27.69
448.214	27.57
448.418	27.46
448.622	27.47
448.826	27.48
449.03	27.4
449.234	27.5
449.438	27.47
449.642	27.41
449.846	27.35
450.05	27.43
450.254	27.41
450.458	27.43
450.662	27.43
450.866	27.56
451.069	27.38
451.273	27.39
451.477	27.44
451.681	27.47
451.885	27.65
452.089	27.61
452.292	27.71
452.496	27.67
452.7	27.93
452.904	28
453.107	27.88
453.311	27.9
453.515	27.9
453.719	27.94
453.922	28.03
454.126	27.83
454.33	27.98
454.533	27.73
454.737	27.68
454.94	27.52
455.144	27.56
455.348	27.51
455.551	27.42
455.755	27.4
455.958	27.27
456.162	27.29
456.365	27.51
456.569	27.34
456.772	27.39
456.976	27.36
457.179	27.13
457.383	27.32
457.586	27.44
457.79	27.3
457.993	27.56
458.196	27.5
458.4	27.4
458.603	27.47
458.807	27.6
459.01	27.67
459.213	27.54
459.417	27.68
459.62	27.59
459.823	27.67
460.026	27.74
460.23	27.65
460.433	27.82
460.636	27.94
460.839	27.85
461.042	27.82
461.246	27.81
461.449	28.05
461.652	28.09
461.855	28.22
462.058	28.09
462.261	28.14
462.464	27.97
462.668	27.84
462.871	27.67
463.074	27.64
463.277	27.68
463.48	27.68
463.683	27.84
463.886	27.96
464.089	27.79
464.292	27.71
464.495	28.01
464.698	28.03
464.901	27.91
465.104	28.04
465.306	28.02
465.509	28.16
465.712	28.24
465.915	27.95
466.118	28
466.321	27.88
466.524	27.97
466.726	27.79
466.929	27.92
467.132	27.99
467.335	27.79
467.538	27.89
467.74	27.64
467.943	27.59
468.146	27.67
468.348	27.66
468.551	27.99
468.754	28.04
468.956	28.07
469.159	28.23
469.362	28.53
469.564	28.59
469.767	28.54
469.969	28.77
470.172	28.87
470.375	29
470.577	28.8
470.78	28.65
470.982	28.7
471.185	28.73
471.387	28.63
471.59	28.57
471.792	28.71
471.995	28.93
472.197	28.93
472.399	28.87
472.602	28.95
472.804	29.16
473.007	29.07
473.209	29.22
473.411	29.18
473.614	29.07
473.816	29.06
474.018	29.07
474.22	28.78
474.423	28.61
474.625	28.67
474.827	28.58
475.03	28.57
475.232	28.71
475.434	28.58
475.636	28.58
475.838	28.66
476.04	28.46
476.243	28.59
476.445	28.67
476.647	28.66
476.849	28.74
477.051	28.76
477.253	28.52
477.455	28.55
477.657	28.54
477.859	28.47
478.061	28.5
478.263	28.75
478.465	28.76
478.667	28.88
478.869	28.91
479.071	28.64
479.273	28.42
479.475	28.59
479.677	28.59
479.879	28.52
480.081	28.64
480.283	28.64
480.485	28.54
480.686	28.33
480.888	28.29
481.09	28.35
481.292	28.43
481.494	28.64
481.695	28.63
481.897	28.45
482.099	28.39
482.301	28.34
482.502	28.26
482.704	28.27
482.906	28.29
483.107	28.26
483.309	28.2
483.511	28.19
483.712	28.15
483.914	28.15
484.115	28.19
484.317	28.19
484.519	28.17
484.72	28.25
484.922	28.2
485.123	28.2
485.325	28.26
485.526	28.29
485.728	28.31
485.929	28.32
486.131	28.37
486.332	28.34
486.534	28.4
486.735	28.48
486.936	28.42
487.138	28.47
487.339	28.43
487.541	28.36
487.742	28.41
487.943	28.39
488.144	28.4
488.346	28.34
488.547	28.36
488.748	28.39
488.95	28.35
489.151	28.38
489.352	28.39
489.553	28.5
489.755	28.52
489.956	28.47
490.157	28.38
490.358	28.3
490.559	28.32
490.76	28.36
490.961	28.27
491.163	28.2
491.364	28.17
491.565	28.13
491.766	28.09
491.967	28.17
492.168	28.16
492.369	28.32
492.57	28.43
492.771	28.41
492.972	28.42
493.173	28.55
493.374	28.67
493.575	28.78
493.776	28.75
493.976	28.78
494.177	28.73
494.378	28.85
494.579	28.84
494.78	28.78
494.981	28.78
495.182	28.79
495.382	28.62
495.583	28.63
495.784	28.68
495.985	28.89
496.185	28.89
496.386	28.97
496.587	29
496.788	29.03
496.988	29.09
497.189	29.24
497.39	29.29
497.59	29.41
497.791	29.39
497.992	29.18
498.192	29.15
498.393	29.09
498.593	29.12
498.794	28.95
498.994	29
499.195	28.98
499.395	29
499.596	29
499.796	29.01
499.997	28.95
500.197	29.1
500.398	29.04
500.598	29.22
500.799	29.15
500.999	29.2
501.199	29.15
501.4	29.11
501.6	29.04
501.801	28.95
502.001	28.98
502.201	28.98
502.402	29.12
502.602	29.02
502.802	28.97
503.002	28.94
503.203	29.07
503.403	29.14
503.603	29.17
503.803	29.27
504.003	29.35
504.204	29.33
504.404	29.34
504.604	29.2
504.804	29.25
505.004	29.1
505.204	29.25
505.404	29.19
505.604	29.02
505.804	28.95
506.005	28.99
506.205	28.99
506.405	29.06
506.605	29.21
506.805	29.3
507.005	29.37
507.204	29.52
507.404	29.4
507.604	29.42
507.804	29.58
508.004	29.75
508.204	29.61
508.404	29.52
508.604	29.53
508.804	29.5
509.003	29.46
509.203	29.57
509.403	29.67
509.603	29.72
509.803	29.85
510.002	29.94
510.202	29.95
510.402	29.97
510.602	30.14
510.801	30.17
511.001	30.21
511.201	30.23
511.4	30.14
511.6	30.18
511.8	30.1
511.999	29.97
512.199	29.87
512.398	29.89
512.598	30.06
512.797	29.97
512.997	29.91
513.197	29.98
513.396	29.98
513.596	30.03
513.795	29.96
513.994	30.14
514.194	30.24
514.393	30.44
514.593	30.49
514.792	30.48
514.992	30.53
515.191	30.58
515.39	30.69
515.59	30.84
515.789	30.83
515.988	30.91
516.188	30.81
516.387	30.87
516.586	30.82
516.786	30.74
516.985	30.72
517.184	30.81
517.383	30.74
517.582	30.6
517.782	30.55
517.981	30.59
518.18	30.55
518.379	30.55
518.578	30.48
518.777	30.47
518.976	30.5
519.176	30.51
519.375	30.5
519.574	30.49
519.773	30.54
519.972	30.71
520.171	30.8
520.37	30.93
520.569	31.02
520.768	31.14
520.967	31.22
521.166	31.2
521.365	31.34
521.564	31.35
521.762	31.45
521.961	31.54
522.16	31.37
522.359	31.39
522.558	31.27
522.757	31.21
522.956	31.12
523.154	31.05
523.353	31.08
523.552	31.02
523.751	31.01
523.949	31.05
524.148	31.07
524.347	31.05
524.546	30.97
524.744	30.98
524.943	31.07
525.142	31.19
525.34	31.45
525.539	31.49
525.737	31.36
525.936	31.4
526.135	31.49
526.333	31.4
526.532	31.41
526.73	31.48
526.929	31.51
527.127	31.46
527.326	31.4
527.524	31.29
527.723	31.28
527.921	31.35
528.12	31.34
528.318	31.37
528.516	31.39
528.715	31.47
528.913	31.54
529.112	31.55
529.31	31.58
529.508	31.63
529.707	31.61
529.905	31.71
530.103	31.67
530.301	31.75
530.5	31.83
530.698	31.9
530.896	31.89
531.094	31.87
531.293	31.86
531.491	31.9
531.689	31.91
531.887	31.87
532.085	31.83
532.283	31.9
532.481	31.87
532.68	31.69
532.878	31.67
533.076	31.59
533.274	31.53
533.472	31.58
533.67	31.64
533.868	31.67
534.066	31.77
534.264	31.7
534.462	31.79
534.66	31.8
534.858	31.94
535.056	31.96
535.253	32.05
535.451	32.12
535.649	32.17
535.847	32.19
536.045	32.13
536.243	32.09
536.441	32.1
536.638	31.97
536.836	31.98
537.034	31.95
537.232	32
537.43	31.95
537.627	31.94
537.825	31.89
538.023	31.96
538.22	32.06
538.418	32.03
538.616	32.18
538.813	32.36
539.011	32.35
539.209	32.4
539.406	32.54
539.604	32.48
539.801	32.53
539.999	32.64
540.196	32.46
540.394	32.49
540.591	32.62
540.789	32.63
540.986	32.54
541.184	32.69
541.381	32.66
541.579	32.69
541.776	32.88
541.974	32.89
542.171	32.93
542.368	33.05
542.566	33.08
542.763	33.11
542.96	33.17
543.158	33.24
543.355	33.21
543.552	33.38
543.75	33.39
543.947	33.45
544.144	33.4
544.341	33.49
544.539	33.51
544.736	33.55
544.933	33.63
545.13	33.77
545.327	33.97
545.524	34.13
545.722	33.95
545.919	33.9
546.116	33.75
546.313	33.87
546.51	33.84
546.707	33.83
546.904	33.84
547.101	33.68
547.298	33.62
547.495	33.51
547.692	33.5
547.889	33.43
548.086	33.4
548.283	33.37
548.48	33.36
548.677	33.18
548.874	33.18
549.07	33.14
549.267	33.35
549.464	33.25
549.661	33.3
549.858	33.15
550.055	33.16
550.251	33.14
550.448	33.15
550.645	32.99
550.842	32.99
551.038	32.86
551.235	32.81
551.432	32.58
551.628	32.43
551.825	32.27
552.022	32.09
552.218	32.26
552.415	32.31
552.612	32.2
552.808	32.25
553.005	32.36
553.201	32.37
553.398	32.5
553.594	32.61
553.791	32.59
553.987	32.69
554.184	32.72
554.38	32.69
554.577	32.61
554.773	32.76
554.97	32.73
555.166	32.66
555.362	32.8
555.559	32.68
555.755	32.89
555.952	33.01
556.148	32.9
556.344	32.9
556.541	33.05
556.737	33.32
556.933	33.49
557.129	33.68
557.326	33.67
557.522	33.43
557.718	33.5
557.914	33.22
558.11	33.28
558.307	33.37
558.503	33.41
558.699	33.3
558.895	33.1
559.091	32.84
559.287	32.72
559.483	32.72
559.679	32.74
559.876	32.96
560.072	32.85
560.268	32.83
560.464	32.63
560.66	32.58
560.856	32.55
561.052	32.55
561.247	32.81
561.443	32.82
561.639	32.91
561.835	33.21
562.031	33.15
562.227	33.1
562.423	32.9
562.619	33.11
562.815	33.13
563.01	33.17
563.206	33.34
563.402	33.22
563.598	33.31
563.793	33.3
563.989	33.12
564.185	33.06
564.381	33.22
564.576	33.24
564.772	33.21
564.968	33.04
565.163	33.1
565.359	32.99
565.555	32.96
565.75	33.02
565.946	32.99
566.141	32.96
566.337	33
566.532	33.1
566.728	33.25
566.923	33.22
567.119	33.44
567.314	33.4
567.51	33.46
567.705	33.54
567.901	33.54
568.096	33.46
568.292	33.48
568.487	33.32
568.682	33.07
568.878	33.36
569.073	33.36
569.268	33.25
569.464	33.13
569.659	33.05
569.854	32.99
570.05	32.95
570.245	33.03
570.44	33.19
570.635	33.16
570.831	33.25
571.026	32.91
571.221	32.96
571.416	32.98
571.611	32.88
571.806	32.94
572.002	33.01
572.197	33.01
572.392	32.99
572.587	32.94
572.782	32.95
572.977	32.98
573.172	33.09
573.367	33.06
573.562	33.13
573.757	33.22
573.952	33.21
574.147	33.07
574.342	32.94
574.537	33.05
574.732	32.94
574.927	32.89
575.121	32.9
575.316	32.81
575.511	32.79
575.706	32.6
575.901	32.74
576.096	32.78
576.29	32.98
576.485	33.05
576.68	32.93
576.875	33.05
577.069	33.29
577.264	33.37
577.459	33.3
577.654	33.36
577.848	33.65
578.043	33.6
578.238	33.68
578.432	33.8
578.627	33.71
578.821	34.1
579.016	34.17
579.21	34.08
579.405	34.29
579.6	34.49
579.794	34.47
579.989	34.35
580.183	34.4
580.378	34.2
580.572	34.1
580.766	34.28
580.961	33.72
581.155	33.71
581.35	33.54
581.544	33.23
581.738	32.96
581.933	33.16
582.127	33.1
582.321	32.99
582.516	33.4
582.71	33.14
582.904	33.26
583.099	33.65
583.293	33.65
583.487	33.73
583.681	33.82
583.875	34.16
584.07	34.11
584.264	34.61
584.458	34.58
584.652	34.06
584.846	34.24
585.04	34.05
585.234	33.7
585.428	33.65
585.623	33.85
585.817	33.82
586.011	33.76
586.205	33.76
586.399	33.48
586.593	33.39
586.787	33.69
586.981	33.61
587.174	33.57
587.368	33.64
587.562	33.74
587.756	33.54
587.95	33.61
588.144	33.58
588.338	33.64
588.532	33.48
588.725	33.77
588.919	33.73
589.113	33.97
589.307	34.1
589.501	33.97
589.694	33.9
589.888	33.94
590.082	33.84
590.275	33.81
590.469	33.59
590.663	33.52
590.856	33.54
591.05	33.55
591.244	33.16
591.437	33.24
591.631	33.64
591.824	33.62
592.018	33.54
592.212	33.42
592.405	33.36
592.599	33.52
592.792	33.84
592.986	33.93
593.179	33.86
593.372	34.04
593.566	33.82
593.759	33.7
593.953	33.68
594.146	33.62
594.339	33.87
594.533	33.95
594.726	33.88
594.92	33.72
595.113	33.55
595.306	33.41
595.499	33.62
595.693	33.69
595.886	33.53
596.079	33.79
596.272	33.88
596.466	33.9
596.659	33.81
596.852	33.66
597.045	33.7
597.238	33.77
597.431	33.74
597.624	33.42
597.818	33.35
598.011	33.54
598.204	33.33
598.397	33.5
598.59	33.37
598.783	33.33
598.976	33.66
599.169	33.77
599.362	33.73
599.555	33.9
599.748	34.03
599.941	34.14
600.134	34.15
600.326	34.11
600.519	33.93
600.712	33.91
600.905	34.02
601.098	33.88
601.291	33.58
601.483	33.46
601.676	33.46
601.869	33.26
602.062	33.09
602.255	32.74
602.447	32.83
602.64	32.75
602.833	32.8
603.025	32.87
603.218	33.03
603.411	33.29
603.603	33.48
603.796	33.58
603.989	33.82
604.181	34.02
604.374	34.13
604.566	34.07
604.759	34.13
604.951	34.12
605.144	34.16
605.336	33.82
605.529	33.72
605.721	33.74
605.914	33.52
606.106	33.41
606.299	33.34
606.491	33.6
606.683	33.74
606.876	33.77
607.068	33.81
607.26	33.65
607.453	34
607.645	33.96
607.837	33.87
608.03	34
608.222	33.95
608.414	33.99
608.606	33.87
608.799	34.05
608.991	34.19
609.183	34.34
609.375	34.66
609.567	35
609.759	35.19
609.952	35.26
610.144	35.69
610.336	36.16
610.528	36.48
610.72	36.93
610.912	37.1
611.104	37.21
611.296	37.46
611.488	37.5
611.68	37.4
611.872	37.51
612.064	37.59
612.256	37.49
612.448	37.41
612.64	37.01
612.832	36.55
613.023	36.42
613.215	36.08
613.407	35.87
613.599	35.65
613.791	35.68
613.983	35.27
614.174	35.41
614.366	35.09
614.558	34.91
614.75	35.2
614.941	35.39
615.133	35.12
615.325	35.38
615.516	35.35
615.708	35.48
615.9	35.21
616.091	35.53
616.283	35.2
616.475	35.08
616.666	34.88
616.858	34.42
617.049	34.27
617.241	34.22
617.432	34.06
617.624	34.02
617.815	33.97
618.007	34.07
618.198	33.85
618.39	34.07
618.581	34.3
618.773	34.18
618.964	34.5
619.155	34.4
619.347	34.2
619.538	34.26
619.729	33.95
619.921	33.77
620.112	33.67
620.303	33.6
620.494	33.49
620.686	33.34
620.877	33.81
621.068	34
621.259	34.33
621.451	34.65
621.642	34.64
621.833	34.95
622.024	35.15
622.215	35.07
622.406	34.9
622.597	35.03
622.788	35.04
622.98	34.82
623.171	34.39
623.362	34.05
623.553	34.05
623.744	34.04
623.935	33.62
624.126	33.64
624.317	33.92
624.508	34.17
624.698	34.12
624.889	33.99
625.08	33.9
625.271	33.78
625.462	33.74
625.653	33.56
625.844	33.65
626.034	33.85
626.225	33.65
626.416	33.41
626.607	33.53
626.798	33.66
626.988	33.79
627.179	33.89
627.37	34.01
627.56	33.92
627.751	33.98
627.942	34.07
628.132	34.1
628.323	34.15
628.514	34.31
628.704	34.44
628.895	34.27
629.085	34.3
629.276	34.46
629.466	34.39
629.657	34.65
629.847	34.79
630.038	34.62
630.228	34.71
630.419	34.91
630.609	34.52
630.8	34.39
630.99	34.39
631.181	34.11
631.371	34.14
631.561	34.36
631.752	34.12
631.942	34.27
632.132	34.12
632.323	33.9
632.513	33.93
632.703	34.19
632.893	34.03
633.084	33.94
633.274	34.34
633.464	34.03
633.654	33.71
633.844	33.45
634.034	33.31
634.225	33.41
634.415	33.65
634.605	33.22
634.795	33.38
634.985	33.36
635.175	33.44
635.365	33.14
635.555	33.26
635.745	33.54
635.935	33.81
636.125	33.63
636.315	33.69
636.505	33.56
636.695	33.63
636.885	33.67
637.075	33.6
637.265	33.4
637.455	33.65
637.644	33.42
637.834	33.53
638.024	33.89
638.214	34.29
638.404	34.23
638.593	34.34
638.783	34.42
638.973	34.07
639.163	34.26
639.352	34.27
639.542	34.03
639.732	34.26
639.921	34.13
640.111	33.93
640.301	33.5
640.49	33.63
640.68	33.82
640.87	33.8
641.059	34.18
641.249	34.06
641.438	34.31
641.628	34.61
641.817	34.45
642.007	34.6
642.196	34.57
642.386	34.58
642.575	34.52
642.764	34.2
642.954	34.67
643.143	34.26
643.333	34.15
643.522	33.78
643.711	33.92
643.901	33.97
644.09	33.85
644.279	33.79
644.469	33.72
644.658	33.74
644.847	33.53
645.036	33.39
645.226	33.36
645.415	33.54
645.604	34.05
645.793	33.72
645.982	33.39
646.171	33.47
646.361	33.47
646.55	33.79
646.739	33.83
646.928	34.14
647.117	34.07
647.306	34.21
647.495	34.01
647.684	33.82
647.873	33.62
648.062	33.82
648.251	33.7
648.44	33.5
648.629	33.22
648.818	33.68
649.007	33.69
649.196	34.14
649.384	34.25
649.573	34.67
649.762	34.8
649.951	34.93
650.14	34.98
650.328	34.64
650.517	34.81
650.706	34.86
650.895	34.07
651.083	33.75
651.272	32.92
651.461	33.34
651.65	33.36
651.838	33.04
652.027	33.23
652.216	33.39
652.404	33.82
652.593	33.63
652.781	33.58
652.97	33.89
653.158	33.91
653.347	34.28
653.535	33.66
653.724	33.28
653.912	33.52
654.101	33.55
654.289	33.54
654.478	33.25
654.666	33.33
654.855	33.21
655.043	33.38
655.231	33.07
655.42	32.9
655.608	32.94
655.796	33.22
655.985	33.12
656.173	32.7
656.361	32.62
656.55	32.57
656.738	32.98
656.926	33.26
657.114	33.13
657.302	33.66
657.491	33.64
657.679	34.01
657.867	33.78
658.055	33.75
658.243	33.94
658.431	33.61
658.619	33.83
658.807	33.56
658.996	33.36
659.184	33.36
659.372	33.41
659.56	33.31
659.748	33.06
659.936	33.14
660.124	33.01
660.311	33.03
660.499	33.4
660.687	33.33
660.875	33.48
661.063	33.69
661.251	33.52
661.439	33.26
661.627	33.47
661.814	33.76
662.002	33.84
662.19	33.74
662.378	33.61
662.565	33.14
662.753	33.49
662.941	33.51
663.129	33.18
663.316	33.54
663.504	34.01
663.692	33.77
663.879	33.52
664.067	33.5
664.254	33.71
664.442	33.7
664.63	33.85
664.817	33.39
665.005	33.35
665.192	33.41
665.38	33.09
665.567	32.66
665.755	32.74
665.942	32.98
666.13	32.52
666.317	32.78
666.504	32.44
666.692	33
666.879	33.37
667.067	33.4
667.254	33.66
667.441	33.56
667.629	33.68
667.816	33.85
668.003	33.66
668.19	34.16
668.378	33.7
668.565	34.26
668.752	34.13
668.939	33.79
669.127	33.5
669.314	33.53
669.501	33.7
669.688	33.85
669.875	33.65
670.062	33.66
670.249	33.46
670.436	33.59
670.623	32.99
670.81	33.25
670.997	33.35
671.184	32.99
671.371	32.44
671.558	32.48
671.745	32.22
671.932	32.22
672.119	32.21
672.306	32.23
672.493	32.32
672.68	32.8
672.867	32.22
673.054	32.19
673.24	32.82
673.427	33.25
673.614	33.05
673.801	33.12
673.988	32.82
674.174	33.09
674.361	32.76
674.548	32.83
674.734	33.11
674.921	33.45
675.108	33.27
675.294	32.77
675.481	32.87
675.668	33.09
675.854	33.73
676.041	34.75
676.227	34.77
676.414	35.07
676.601	34.98
676.787	34.93
676.974	34.28
677.16	34.06
677.347	34.44
677.533	34.44
677.719	34.57
677.906	33.77
678.092	33.7
678.279	33.23
678.465	33.61
678.651	33.35
678.838	33.62
679.024	33.77
679.21	34.12
679.397	34.2
679.583	34.19
679.769	33.88
679.955	33.82
680.142	33.36
680.328	33.61
680.514	33.42
680.7	33.93
680.886	33.44
681.073	33.52
681.259	33.68
681.445	33.73
681.631	33.83
681.817	33.5
682.003	33.43
682.189	33.19
682.375	33.04
682.561	33.15
682.747	33.41
682.933	33.63
683.119	33.59
683.305	33.44
683.491	33.29
683.677	33.39
683.863	33.39
684.049	33.74
684.235	33.87
684.42	33.39
684.606	32.98
684.792	32.43
684.978	32.25
685.164	32.68
685.349	32.46
685.535	32.03
685.721	31.8
685.907	32.33
686.092	32.64
686.278	32.8
686.464	33.06
686.649	33.43
686.835	33.72
687.021	33.81
687.206	33.71
687.392	34.19
687.577	35.01
687.763	34.9
687.948	34.94
688.134	34.51
688.319	34.97
688.505	35.1
688.69	35.03
688.876	34.91
689.061	35.05
689.247	35
689.432	34.59
689.618	34.46
689.803	34.46
689.988	34.35
690.174	34.64
690.359	34.3
690.544	34.43
690.73	34.29
690.915	34.2
691.1	33.94
691.285	33.94
691.471	34.05
691.656	33.55
691.841	33.76
692.026	34.29
692.211	34.09
692.396	33.74
692.582	33.76
692.767	33.41
692.952	33.59
693.137	33.49
693.322	33.47
693.507	34.09
693.692	34.02
693.877	33.84
694.062	33.09
694.247	33.41
694.432	34.11
694.617	33.83
694.802	34.74
694.987	34.37
695.172	34.87
695.357	35.07
695.541	34.15
695.726	34.31
695.911	34.2
696.096	34.39
696.281	34.05
696.466	34.44
696.65	34.42
696.835	34.52
697.02	34.71
697.204	34.14
697.389	33.38
697.574	33.6
697.759	33.74
697.943	33.56
698.128	33.31
698.312	33.39
698.497	32.68
698.682	32.7
698.866	32.21
699.051	32.15
699.235	32.11
699.42	32.34
699.604	32.45
699.789	32.74
699.973	32.82
700.158	33.36
700.342	33.25
700.527	33.82
700.711	33.72
700.895	33.8
701.08	33.83
701.264	34.45
701.448	34.22
701.633	34.3
701.817	33.85
702.001	34.35
702.186	34.07
702.37	34
702.554	33.59
702.738	33.94
702.923	33.98
703.107	33.88
703.291	32.89
703.475	33.73
703.659	33.73
703.843	32.61
704.027	31.99
704.212	31.8
704.396	32.16
704.58	32.14
704.764	32.42
704.948	32.41
705.132	32.81
705.316	33.8
705.5	33.11
705.684	33.44
705.868	34.6
706.052	35.01
706.235	34.94
706.419	34.99
706.603	35.57
706.787	35.61
706.971	35.7
707.155	35.28
707.339	35
707.522	35.73
707.706	34.85
707.89	34.71
708.074	34.95
708.257	36.1
708.441	36.43
708.625	35.49
708.808	34.42
708.992	34.3
709.176	34.85
709.359	34.65
709.543	34.16
709.727	34.69
709.91	34.47
710.094	34.53
710.277	33.83
710.461	33.94
710.644	34.61
710.828	35.05
711.011	34.87
711.195	34.65
711.378	34.54
711.562	33.99
711.745	34.04
711.928	34.29
712.112	34.41
712.295	33.9
712.478	33.3
712.662	33.44
712.845	34.11
713.028	34.6
713.212	34.26
713.395	34.44
713.578	35.28
713.761	34.69
713.945	34.72
714.128	34.09
714.311	34.41
714.494	34.68
714.677	34.07
714.86	33.39
715.043	33.23
715.227	32.74
715.41	33.36
715.593	32.73
715.776	32.89
715.959	32.64
716.142	32.6
716.325	32.8
716.508	32.81
716.691	33.37
716.874	33.93
717.057	33.62
717.239	34.35
717.422	34.53
717.605	34.53
717.788	34.14
717.971	34.7
718.154	35.06
718.337	34.99
718.519	34.39
718.702	34.57
718.885	34.24
719.068	34.93
719.25	34.63
719.433	33.89
719.616	33.87
719.798	35.04
719.981	35.42
720.164	35.58
720.346	34.71
720.529	34.54
720.712	33.37
720.894	33.82
721.077	33.59
721.259	34.28
721.442	34.09
721.624	35.49
721.807	34.69
721.989	33.88
722.172	33.96
722.354	34.67
722.537	35.01
722.719	35.54
722.901	35.29
723.084	35.55
723.266	36.22
723.448	36.65
723.631	36
723.813	36.06
723.995	37.2
724.178	37.17
724.36	37.96
724.542	37.23
724.724	37.02
724.907	37.35
725.089	37.79
725.271	37.48
725.453	37.78
725.635	37.3
725.817	37.74
725.999	37.2
726.181	36.49
726.364	35.8
726.546	36.14
726.728	35.95
726.91	36.44
727.092	36.37
727.274	35.3
727.456	35.19
727.638	35.87
727.819	35.02
728.001	35.33
728.183	35.97
728.365	36.4
728.547	36.83
728.729	37.09
728.911	36.97
729.093	36.13
729.274	36.77
729.456	36.34
729.638	37
729.82	37.96
730.001	37.24
730.183	37.11
730.365	36.77
730.546	37.75
730.728	37.27
730.91	35.84
731.091	35.59
731.273	35.9
731.455	35.88
731.636	34.84
731.818	33.37
731.999	32.75
732.181	32.16
732.362	31.33
732.544	30.83
732.725	32.02
732.907	32.91
733.088	32.92
733.27	32.04
733.451	32.14
733.633	30.96
733.814	32.58
733.995	33.27
734.177	32.86
734.358	33.2
734.539	32.87
734.721	31.87
734.902	31.6
735.083	31.35
735.264	31.66
735.446	33.12
735.627	33.86
735.808	33.64
735.989	33.71
736.17	35.58
736.351	35.74
736.533	35.13
736.714	35.75
736.895	34.87
737.076	35
737.257	34.78
737.438	33.08
737.619	34.76
737.8	34.43
737.981	34.41
738.162	34.01
738.343	33.72
738.524	34.19
738.705	33.26
738.886	34.31
739.067	35.37
739.247	34.87
739.428	34.53
739.609	33.31
739.79	33.21
739.971	33.58
740.151	33.03
740.332	33.38
740.513	33.53
740.694	34.56
740.874	34.57
741.055	34.28
741.236	34.41
741.417	35.72
741.597	35.49
741.778	35.72
741.958	35.41
742.139	34.91
742.32	34.76
742.5	34.15
742.681	34.31
742.861	34.15
743.042	32.5
743.222	33.07
743.403	31.81
743.583	32.77
743.764	32.98
743.944	31.15
744.124	31.02
744.305	31.62
744.485	32.19
744.666	32.82
744.846	31.74
745.026	32.18
745.207	32.17
745.387	33.34
745.567	32.33
745.747	31.43
745.928	31.96
746.108	32.92
746.288	32.56
746.468	31.13
746.648	29.4
746.829	29.63
747.009	29.95
747.189	29.44
747.369	29.29
747.549	29.57
747.729	30.04
747.909	31.32
748.089	30.68
748.269	30.56
748.449	32.11
748.629	32.79
748.809	33.6
748.989	33.83
749.169	33.88
749.349	33.43
749.529	33.11
749.709	33.09
749.889	32.06
750.068	34.2
750.248	33.71
750.428	33.61
750.608	32.57
750.788	32.99
750.967	32.66
751.147	33.44
751.327	32.34
751.507	32.81
751.686	31.77
751.866	33.51
752.046	31.23
752.225	30.92
752.405	30.2
752.585	31.42
752.764	30.96
752.944	32
753.123	32.21
753.303	33.26
753.482	33.5
753.662	34.44
753.841	33.07
754.021	33.05
754.2	34.62
754.38	35.3
754.559	34.79
754.739	35.28
754.918	34.47
755.097	32.46
755.277	31.52
755.456	32.24
755.635	32.46
755.815	33.22
755.994	33.73
756.173	32.36
756.352	32.69
756.532	32.86
756.711	31.56
756.89	32.77
757.069	32.77
757.248	32.6
757.427	32.17
757.607	31.55
757.786	30.33
757.965	30.04
758.144	31.41
758.323	30.57
758.502	30.31
758.681	30.29
758.86	28.94
759.039	29.59
759.218	29.51
759.397	28.42
759.576	28.34
759.755	29.85
759.934	29.84
760.113	29.32
760.291	29.59
760.47	29.54
760.649	30.03
760.828	31.88
761.007	32.19
761.186	33.26
761.364	33.87
761.543	33.38
761.722	32.19
761.901	32.7
762.079	32.79
762.258	33.37
762.437	33.97
762.615	33.89
762.794	32.6
762.972	33.67
763.151	33.33
763.33	32.98
763.508	33.85
763.687	34.35
763.865	34.16
764.044	34.03
764.222	33.97
764.401	33.96
764.579	34.61
764.758	34.95
764.936	34.33
765.114	34.6
765.293	35.14
765.471	33.8
765.65	34.5
765.828	34.24
766.006	33.68
766.184	32.86
766.363	31.82
766.541	30.71
766.719	31.3
766.898	31.79
767.076	32.52
767.254	32.63
767.432	33.63
767.61	32.52
767.788	33.04
767.967	34.06
768.145	34.21
768.323	34.86
768.501	35.69
768.679	35.87
768.857	34.9
769.035	32.82
769.213	31.58
769.391	29.28
769.569	29.49
769.747	30.34
769.925	31.08
770.103	31.11
770.281	31.1
770.459	30.56
770.636	29.1
770.814	30.28
770.992	30.56
771.17	31.75
771.348	34.22
771.525	33.7
771.703	33.46
771.881	30.33
772.059	30.32
772.236	30.26
772.414	31.99
772.592	32.93
772.769	33.11
772.947	33.42
773.125	33.52
773.302	34.75
773.48	35.39
773.657	35.27
773.835	37.61
774.013	37.1
774.19	38.1
774.368	37.52
774.545	36.16
774.723	35.32
774.9	35.24
775.077	33.46
775.255	31.4
775.432	31.06
775.61	27.8
775.787	25.98
775.964	23.17
776.142	21.62
776.319	19.88
776.496	21.43
776.674	20.87
776.851	20.95
777.028	23.28
777.205	22.56
777.382	23.27
777.56	24.21
777.737	24.79
777.914	28.74
778.091	27.72
778.268	28.32
778.445	26.21
778.622	26.28
778.8	26.05
778.977	25.31
779.154	25.81
779.331	25.82
779.508	30.11
779.685	31.52
779.862	31.92
780.038	33.1
780.215	32.15
780.392	32.99
780.569	33.6
780.746	34.62
780.923	34.91
781.1	36.02
781.277	34.8
781.453	30.29
781.63	27.83
781.807	27.48
781.984	29.33
782.16	30.47
782.337	30.39
782.514	29.26
782.691	27.3
782.867	27.49
783.044	28.8
783.221	31.37
783.397	33.08
783.574	36.13
783.75	34.12
783.927	34.07
784.103	32.91
784.28	33.29
784.456	33.31
784.633	32.02
784.809	33.71
784.986	33.86
785.162	30.75
785.339	31.3
785.515	29.6
785.692	32.72
785.868	30.65
786.044	32.59
786.221	33.62
786.397	35.12
786.573	36.54
786.749	35.62
786.926	33.87
787.102	34.92
787.278	34.9
787.454	35.52
787.631	31.89
787.807	33.37
787.983	33.35
788.159	33.42
788.335	32.71
788.511	31.87
788.687	30.74
788.863	31.1
789.039	32.32
789.216	32.84
789.392	32.78
789.568	31.57
789.744	30.03
789.919	28.39
790.095	28.84
790.271	28.56
790.447	31.07
790.623	32.81
790.799	30.83
790.975	30.83
791.151	29.82
791.327	27.74
791.502	32.05
791.678	32.67
791.854	35.26
792.03	33.43
792.205	33.62
792.381	31.5
792.557	29.06
792.733	30.62
792.908	29.9
793.084	32.6
793.259	31.15
793.435	29.26
793.611	26.8
793.786	26.38
793.962	27.41
794.137	26.3
794.313	28.51
794.488	29.83
794.664	30.44
794.839	28.37
795.015	26.53
795.19	29.21
795.366	29.73
795.541	31.92
795.716	30.3
795.892	29.99
796.067	29.85
796.242	29.17
796.418	29.51
796.593	30.77
796.768	33.08
796.944	34.03
797.119	35.95
797.294	35.75
797.469	36.28
797.644	38.16
797.82	38.59
797.995	36.74
798.17	35.03
798.345	37.17
798.52	35.46
798.695	34.86
798.87	34.96
799.045	33.02
799.22	32.88
799.395	30.38
799.57	26.07
799.745	27.49
799.92	35.89
800.095	38.54
800.27	33.97
800.445	34.63
800.62	36.41
800.795	33.82
800.97	36.22
801.145	34.43
801.319	35.41
801.494	39.97
801.669	37.46
801.844	28.87
802.018	26.88
802.193	29.11
802.368	26.14
802.543	22.03
802.717	23.82
802.892	19.88
803.067	20.16
803.241	21.03
803.416	18.97
803.59	21.8
803.765	22.03
803.94	22.98
804.114	23.11
804.289	24.54
804.463	25.34
804.638	26.44
804.812	28.95
804.986	31.49
805.161	32.78
805.335	32.01
805.51	31.51
805.684	34.37
805.858	35.1
806.033	34.45
806.207	35.86
806.381	38.3
806.556	36.41
806.73	37.2
806.904	37.28
807.078	36.72
807.253	40.24
807.427	38.02
807.601	37.98
807.775	33.8
807.949	34.93
808.123	34.83
808.298	33.4
808.472	29.74
808.646	32.38
808.82	32.91
808.994	35.31
809.168	33.39
809.342	35.09
809.516	35.38
809.69	39.45
809.864	38.86
810.038	41.23
810.212	42.47
810.385	49.15
810.559	46.15
810.733	46.52
810.907	45.28
811.081	41.4
811.255	39.79
811.428	38.94
811.602	34.37
811.776	31.26
811.95	28.86
812.123	31.43
812.297	30.85
812.471	27.23
812.644	25.34
812.818	24.41
812.992	24.63
813.165	22.55
813.339	23.46
813.512	29.33
813.686	31.84
813.86	28.05
814.033	26.52
814.207	21.3
814.38	25.11
814.554	29.05
814.727	31.82
814.9	34.31
815.074	37.13
815.247	36.19
815.421	34.01
815.594	32.22
815.767	32.89
815.941	29.12
816.114	30.65
816.287	32.33
816.46	28.14
816.634	23.86
816.807	23.36
816.98	21.75
817.153	20.43
817.327	19.56
817.5	23.54
817.673	25.17
817.846	30.51
818.019	31.57
818.192	27.83
818.365	26.83
818.538	27.79
818.711	29.18
818.884	28.2
819.057	27.99
819.23	29.49
819.403	30.31
819.576	28.4
819.749	24.57
819.922	26.29
820.095	27.57
820.268	28.96
820.441	29.2
820.614	29.93
820.786	32.41
820.959	31.99
821.132	33.3
821.305	33.88
821.477	33.91
821.65	33.04
821.823	32.75
821.996	33.79
822.168	34.07
822.341	34.73
822.514	33.92
822.686	33.06
822.859	33.69
823.031	32.31
823.204	31.73
823.376	32.32
823.549	32.18
823.722	32.7
823.894	31.71
824.067	31.54
824.239	31.36
824.411	32.18
824.584	32.13
824.756	31.4
824.929	32.47
825.101	32.11
825.273	31.3
825.446	32.18
825.618	30.65
825.79	29.92
825.963	30.24
826.135	29.07
826.307	28.1
826.479	27.75
826.652	27.89
826.824	27.7
826.996	27.34
827.168	28.3
827.34	27.64
827.512	27.85
827.684	29.14
827.856	28.19
828.029	29
828.201	30.48
828.373	31.63
828.545	32.17
828.717	32.79
828.889	32.27
829.061	31.2
829.232	30.74
829.404	31.75
829.576	30.11
829.748	30.16
829.92	30.42
830.092	29.56
830.264	31.69
830.436	31.45
830.607	29.63
830.779	29.83
830.951	29.26
831.123	31.01
831.294	28.73
831.466	30.61
831.638	35.27
831.809	31.77
831.981	28.82
832.153	23.22
832.324	17.72
832.496	21.27
832.667	24.55
832.839	25.74
833.011	28.32
833.182	30.2
833.354	28.82
833.525	25.95
833.697	28.47
833.868	30.5
834.039	31.9
834.211	33.17
834.382	31.52
834.554	30.67
834.725	28.86
834.896	24.45
835.068	23.28
835.239	21.89
835.41	21.94
835.581	20.08
835.753	17.22
835.924	13.79
836.095	12.31
836.266	14.08
836.438	15.48
836.609	18.92
836.78	24.12
836.951	27.47
837.122	28.72
837.293	27.91
837.464	32.78
837.635	36.91
837.806	42.06
837.977	47.33
838.148	44.73
838.319	44.14
838.49	42.2
838.661	45.67
838.832	43.8
839.003	47.98
839.174	49.96
839.345	47.92
839.516	44.74
839.687	40.39
839.857	36.27
840.028	37.88
840.199	36.21
840.37	34.59
840.54	28.15
840.711	27.57
840.882	29.18
841.053	21.45
841.223	19.83
841.394	21.34
841.564	23.82
841.735	25.53
841.906	21.39
842.076	26.99
842.247	31.27
842.417	33.58
842.588	33.12
842.758	31.2
842.929	39.28
843.099	41.57
843.27	36.83
843.44	40.35
843.611	40.19
843.781	45.77
843.951	38.43
844.122	34.04
844.292	29.81
844.462	28.93
844.633	25.07
844.803	25.94
844.973	32.15
845.144	44.5
845.314	39.26
845.484	43.01
845.654	39.46
845.824	50.33
845.995	56.37
846.165	57.9
846.335	56.07
846.505	61.69
846.675	58.66
846.845	59.46
847.015	50.95
847.185	50.02
847.355	52.63
847.525	52.59
847.695	53.22
847.865	47.1
848.035	55.25
848.205	64.21
848.375	57.68
848.545	66.49
848.715	60.92
848.884	73.48
849.054	77.23
849.224	51.2
849.394	44.91
849.564	41.92
849.733	37.71
849.903	10.94
850.073	8.76
850.243	1.45
850.412	-7.95
850.582	-16.14
850.752	3.3
850.921	4.19
851.091	10.3
851.26	24.59
851.43	-4.33
851.599	2.62
851.769	28.23
851.939	31.81
852.108	62.2
852.278	52.51
852.447	65.94
852.616	57.64
852.786	52.72
852.955	56.21
853.125	66.81
853.294	74.93
853.463	75.44
853.633	55.38
853.802	47
853.971	45.36
854.141	53.56
854.31	39.78
854.479	29.36
854.648	30.39
854.818	26.03
854.987	25.3
855.156	35.59
855.325	39.4
855.494	39.86
855.663	47.55
855.832	59.32
856.001	55.41
856.171	65.75
856.34	69.82
856.509	88.98
856.678	88.38
856.847	87.57
857.016	77.02
857.185	66.37
857.353	79.52
857.522	70.49
857.691	66.72
857.86	64.02
858.029	72.3
858.198	73
858.367	63.22
858.535	54.98
858.704	43.61
858.873	51.89
859.042	55.17
859.21	50.98
859.379	53.33
859.548	50.86
859.717	37.69
859.885	26.18
860.054	24.87
860.222	27.65
860.391	37.27
860.56	44.37
860.728	49.79
860.897	55.6
861.065	57.75
861.234	53.8
861.402	53.01
861.571	65.22
861.739	75.17
861.908	69.28
862.076	55.01
862.244	43.88
862.413	40.67
862.581	44.94
862.749	40.3
862.918	30.66
863.086	48.78
863.254	36.2
863.423	26.27
863.591	30.71
863.759	22.87
863.927	47.96
864.096	61.11
864.264	44.16
864.432	29.96
864.6	16.14
864.768	28.27
864.936	22.94
865.104	37.12
865.272	62.37
865.44	49.53
865.608	50.76
865.776	52.1
865.944	53.23
866.112	64.24
866.28	71.51
866.448	77.92
866.616	69.3
866.784	61.57
866.952	62.12
867.12	59.16
867.288	72.29
867.455	67.25
867.623	60.21
867.791	49.31
867.959	45.97
868.127	39.97
868.294	38.07
868.462	35.79
868.63	32.36
868.797	21.2
868.965	16.02
869.133	2.55
869.3	20.69
869.468	35.56
869.636	37.86
869.803	31.59
869.971	32.48
870.138	39.92
870.306	46.61
870.473	56.28
870.641	62.52
870.808	66.18
870.975	61.99
871.143	52.83
871.31	47.4
871.478	44.17
871.645	48.5
871.812	34.06
871.98	41.96
872.147	57.34
872.314	46.55
872.482	49.81
872.649	36.71
872.816	35.32
872.983	33.17
873.15	38.85
873.318	33.25
873.485	17.29
873.652	49.06
873.819	31.48
873.986	-25.76
874.153	-29
874.32	-11.04
874.487	5.39
874.654	15.03
874.821	7.75
874.988	-2.87
875.155	7.12
875.322	20.23
875.489	13.09
875.656	12.78
875.823	5.5
875.99	15.31
876.157	0.91
876.324	0.68
876.49	9.07
876.657	23.99
876.824	32.54
876.991	24.54
877.157	29.8
877.324	35.19
877.491	25.29
877.658	37.54
877.824	40.01
877.991	54.37
878.157	54.75
878.324	49.58
878.491	47.56
878.657	34.45
878.824	51.72
878.99	35.6
879.157	27.7
879.323	49.42
879.49	30.08
879.656	32.62
879.823	25.49
879.989	32.72
880.156	29.68
880.322	24.3
880.488	36.48
880.655	32.22
880.821	45.71
880.987	50.9
881.154	44.65
881.32	51.08
881.486	47.51
881.652	45.91
881.819	41.13
881.985	42.04
882.151	39
882.317	35.27
882.483	31.54
882.649	27.73
882.816	25.06
882.982	25.06
883.148	22.08
883.314	22.88
883.48	23.04
883.646	27.18
883.812	28.88
883.978	29.17
884.144	31.13
884.31	33.75
884.476	33.57
884.642	34.86
884.807	33.23
884.973	31.58
885.139	32.68
885.305	34.5
885.471	35.07
885.637	32.59
885.802	34.52
885.968	35.54
886.134	35.44
886.3	37.97
886.465	38.97
886.631	47.25
886.797	49.26
886.962	51.11
887.128	51.95
887.293	50.12
887.459	57.21
887.625	58.52
887.79	56.5
887.956	51.24
888.121	49.39
888.287	51.28
888.452	46.94
888.618	51.51
888.783	53.1
