Data from CB_073_Reflection_3.txt Node
Date: Sat Nov 14 11:17:39 EST 2015
User: robert
Spectrometer: USB4E03001
Autoset integration time: false
Trigger mode: 4
Integration Time (sec): 1.000000E-1
Scans to average: 15
Electric dark correction enabled: true
Nonlinearity correction enabled: false
Boxcar width: 5
Stray light correction enabled: false
XAxis mode: Wavelengths
Stop averaging: false
Number of Pixels in Spectrum: 3648
>>>>>Begin Spectral Data<<<<<
177.566	-307.96
177.785	-419.57
178.005	-1236.95
178.225	-140.52
178.445	-204.89
178.665	-306.15
178.885	-131.11
179.105	-158.41
179.324	-237.83
179.544	-421.59
179.764	-121.61
179.984	-147
180.204	-165.2
180.423	-516.72
180.643	-231.74
180.863	-367.86
181.083	-1428.54
181.302	-6400
181.522	725.1
181.742	785.05
181.961	991.3
182.181	155.59
182.401	128.01
182.621	205.97
182.84	877.19
183.06	-2491.19
183.279	-373.9
183.499	-309.16
183.719	-399.25
183.938	-262.69
184.158	-187.54
184.377	-189.46
184.597	-110.96
184.816	-72.09
185.036	-97.22
185.256	-174.67
185.475	-374.63
185.695	-233.94
185.914	-168.94
186.134	-177.99
186.353	-199.54
186.572	-244.38
186.792	-542.99
187.011	2863.87
187.231	-1740.26
187.45	-450.5
187.67	-1464.53
187.889	752.13
188.108	396.36
188.328	354.02
188.547	230.28
188.766	190.51
188.986	145.26
189.205	150.05
189.424	161.44
189.644	153.01
189.863	202.79
190.082	198.06
190.302	283.13
190.521	217.85
190.74	211.9
190.959	960.59
191.178	800.76
191.398	642.5
191.617	1660
191.836	6984.41
192.055	1045.57
192.274	250.6
192.494	374.69
192.713	10755.36
192.932	-1224.67
193.151	212000
193.37	398.67
193.589	-9368.14
193.808	-917.66
194.027	-1501.45
194.246	2968.3
194.465	-2188.73
194.685	502.66
194.904	544.42
195.123	305.43
195.342	254.25
195.561	244.05
195.78	460.62
195.999	1161.83
196.218	444.79
196.436	346.09
196.655	137.67
196.874	118.26
197.093	307.96
197.312	266.94
197.531	486.92
197.75	660.25
197.969	1918.98
198.188	336.56
198.407	223.72
198.625	211.17
198.844	267.28
199.063	337.89
199.282	629.81
199.501	-2225.78
199.719	-1032.01
199.938	634.7
200.157	400.05
200.376	-2122.46
200.594	-126.09
200.813	-410.36
201.032	-1093.6
201.251	-331.26
201.469	-529.49
201.688	-1084.35
201.907	2029.24
202.125	543.46
202.344	1929.48
202.563	10386.96
202.781	604.28
203	224.21
203.218	155.57
203.437	301.45
203.656	261.77
203.874	643.92
204.093	580.92
204.311	420.9
204.53	1476.66
204.748	366.98
204.967	545.3
205.185	408.04
205.404	466.09
205.622	656.48
205.841	308.47
206.059	276.32
206.278	194.21
206.496	304.81
206.715	410.79
206.933	271.57
207.151	356.26
207.37	210.93
207.588	260.09
207.806	288.06
208.025	386.8
208.243	642.89
208.461	-37718.18
208.68	1141.03
208.898	468.56
209.116	306.17
209.335	251.47
209.553	174.39
209.771	164.26
209.989	158.61
210.208	122.31
210.426	94.51
210.644	88.64
210.862	96.32
211.081	105.7
211.299	91.24
211.517	115.54
211.735	99.45
211.953	101.07
212.171	126.73
212.39	127.31
212.608	164.51
212.826	169.33
213.044	171.44
213.262	155.78
213.48	161.59
213.698	217.6
213.916	117.35
214.134	211.43
214.352	478.73
214.57	315.61
214.788	293.14
215.006	206.9
215.224	368.4
215.442	1099.9
215.66	2557.94
215.878	687.55
216.096	267.18
216.314	847.11
216.532	2831.98
216.75	-667.1
216.968	-720.46
217.185	-4812.39
217.403	1493.15
217.621	-74000
217.839	-205.35
218.057	-7347.92
218.275	-245.52
218.492	-33.75
218.71	-1203.49
218.928	1171.14
219.146	571.55
219.363	314.99
219.581	341.3
219.799	-1641.43
220.017	295.05
220.234	358.28
220.452	354.08
220.67	534.27
220.887	227.99
221.105	322.98
221.323	168.15
221.54	146.27
221.758	158.45
221.976	144.11
222.193	94.31
222.411	86.63
222.629	103.09
222.846	103.55
223.064	105.63
223.281	117.51
223.499	134.32
223.716	124.45
223.934	113.37
224.151	102.61
224.369	114.65
224.586	140.33
224.804	158.06
225.021	156.83
225.239	152.28
225.456	139.06
225.674	116.87
225.891	97.06
226.108	80.21
226.326	79.48
226.543	70.68
226.76	51.67
226.978	47.45
227.195	49.07
227.413	31.95
227.63	34.41
227.847	30.55
228.064	33.84
228.282	35.5
228.499	37.09
228.716	33.27
228.934	32.45
229.151	32.21
229.368	30.4
229.585	25.86
229.802	26.04
230.02	26.92
230.237	26.72
230.454	25.46
230.671	24.21
230.888	28.31
231.105	33.61
231.323	38.17
231.54	42
231.757	41.29
231.974	51.11
232.191	55.05
232.408	50.47
232.625	52.12
232.842	48.77
233.059	54.8
233.276	49.66
233.493	45
233.71	40.91
233.927	41.58
234.144	43.4
234.361	37.05
234.578	35.35
234.795	36.15
235.012	35.1
235.229	34.04
235.446	32.19
235.663	32.61
235.879	31.52
236.096	32.29
236.313	31.94
236.53	25.02
236.747	28.16
236.964	26.76
237.181	30.48
237.397	34.86
237.614	43.57
237.831	45.85
238.048	47.59
238.264	43.38
238.481	43.1
238.698	41.66
238.915	37.24
239.131	29.62
239.348	30.56
239.565	29.63
239.781	27.09
239.998	21.89
240.215	19.08
240.431	17.72
240.648	19.97
240.865	17.88
241.081	16.82
241.298	18.9
241.514	22.12
241.731	21.19
241.947	19.51
242.164	17.49
242.38	15.91
242.597	14.25
242.814	12.62
243.03	13.45
243.246	14.07
243.463	15.66
243.679	17.12
243.896	15.73
244.112	14.62
244.329	14.95
244.545	18.09
244.762	17.14
244.978	18.09
245.194	17.43
245.411	18.52
245.627	17.82
245.843	17.84
246.06	16.97
246.276	16.44
246.492	17.89
246.709	17.35
246.925	15.53
247.141	16.52
247.357	16.61
247.574	17.84
247.79	16.83
248.006	16.41
248.222	16.88
248.439	16.1
248.655	14.98
248.871	14.3
249.087	15.6
249.303	17.68
249.519	17.13
249.736	19
249.952	18.5
250.168	23.82
250.384	24.65
250.6	22.77
250.816	25.83
251.032	28.61
251.248	29.3
251.464	25
251.68	20.83
251.896	21.13
252.112	18.09
252.328	17.5
252.544	14.72
252.76	13.07
252.976	12.3
253.192	9.76
253.408	9.61
253.624	7.22
253.84	9.11
254.056	10.23
254.272	7.12
254.487	5.92
254.703	3.25
254.919	-1.01
255.135	5
255.351	5.13
255.567	5.14
255.782	9.46
255.998	11.84
256.214	10.13
256.43	9.07
256.646	13.34
256.861	16.07
257.077	17
257.293	18.6
257.508	17.51
257.724	17.09
257.94	16.73
258.155	14.94
258.371	13.71
258.587	13.55
258.802	14.4
259.018	12.5
259.234	11.84
259.449	11.71
259.665	11.5
259.88	10.91
260.096	11.87
260.312	11.05
260.527	10.32
260.743	10.92
260.958	10.91
261.174	11.11
261.389	12.69
261.605	12.16
261.82	11.69
262.036	12.11
262.251	12.16
262.466	11.14
262.682	12.41
262.897	13.97
263.113	13.27
263.328	12.34
263.543	11.68
263.759	10.51
263.974	12.27
264.189	12.25
264.405	10.72
264.62	10.94
264.835	9.5
265.051	11.11
265.266	10.21
265.481	12.24
265.696	16.69
265.912	13.39
266.127	13.28
266.342	12.75
266.557	15.44
266.773	16.55
266.988	15.7
267.203	15.74
267.418	14.02
267.633	14.01
267.848	12.24
268.064	8.99
268.279	11.83
268.494	10.68
268.709	10.6
268.924	9.77
269.139	8.08
269.354	9.77
269.569	9.25
269.784	10.24
269.999	10.17
270.214	11.51
270.429	12.66
270.644	11.79
270.859	11.94
271.074	11.83
271.289	11.96
271.504	13.15
271.719	12.4
271.934	14.56
272.149	14.19
272.363	15.03
272.578	13.02
272.793	12.43
273.008	12.2
273.223	10.88
273.438	11.23
273.653	11.52
273.867	9.26
274.082	9.9
274.297	8.17
274.512	8.42
274.726	7.2
274.941	8.02
275.156	9.16
275.371	9.64
275.585	12.11
275.8	12.66
276.015	11.81
276.229	14.53
276.444	14.87
276.659	14.36
276.873	14.84
277.088	16.09
277.302	17.83
277.517	15.05
277.732	15.5
277.946	14.4
278.161	15.12
278.375	14.82
278.59	12.58
278.804	11.68
279.019	12.12
279.233	10.93
279.448	9.18
279.662	7.35
279.877	8.23
280.091	5.87
280.306	7.05
280.52	3.14
280.735	3.04
280.949	6.54
281.163	6.43
281.378	6.01
281.592	7.71
281.806	7.79
282.021	7.38
282.235	8.26
282.449	10.96
282.664	10.79
282.878	12.59
283.092	12.35
283.307	10.44
283.521	9.77
283.735	11.55
283.949	11.69
284.164	11.69
284.378	11.48
284.592	11.07
284.806	10.01
285.02	8.98
285.234	7.87
285.449	7.3
285.663	8.41
285.877	8.2
286.091	6.99
286.305	6.69
286.519	7.69
286.733	8.55
286.947	9.34
287.161	8.66
287.375	8.45
287.589	10.39
287.803	12.51
288.017	10.87
288.231	11.67
288.445	11.66
288.659	11.12
288.873	9.97
289.087	10.71
289.301	10.75
289.515	11.07
289.729	12.57
289.943	13.04
290.157	12.89
290.371	14.23
290.584	14.45
290.798	15.86
291.012	16.61
291.226	16.89
291.44	16.92
291.654	17.02
291.867	17.63
292.081	17.6
292.295	16.75
292.509	16.04
292.722	14.25
292.936	13.58
293.15	13.18
293.364	12.04
293.577	12.58
293.791	12.85
294.005	11.45
294.218	11.82
294.432	10.59
294.645	10.79
294.859	11.9
295.073	12.88
295.286	13.14
295.5	12.46
295.713	12.16
295.927	11.15
296.14	10.25
296.354	10.25
296.568	9.49
296.781	9.46
296.994	9.56
297.208	8.27
297.421	8.07
297.635	8.67
297.848	8.28
298.062	8.24
298.275	8.75
298.489	8.51
298.702	9.29
298.915	9.25
299.129	9.94
299.342	9.24
299.555	10.37
299.769	11.03
299.982	10.16
300.195	10.57
300.409	11.13
300.622	10.77
300.835	11.57
301.048	11.39
301.262	11.57
301.475	11.47
301.688	12.61
301.901	11.6
302.115	10.56
302.328	11.02
302.541	12.01
302.754	12.16
302.967	12.85
303.18	12.58
303.393	13.23
303.607	13.58
303.82	14.1
304.033	13.25
304.246	14.46
304.459	14.97
304.672	15.57
304.885	15.46
305.098	15.83
305.311	15.87
305.524	15.59
305.737	14.93
305.95	15.34
306.163	15.76
306.376	14.59
306.589	14.37
306.802	15.05
307.015	15.46
307.228	15.57
307.44	15.49
307.653	14.99
307.866	16.03
308.079	16.55
308.292	14.81
308.505	15.16
308.718	15.44
308.93	15.52
309.143	15.62
309.356	14.28
309.569	13.47
309.781	13.53
309.994	14.31
310.207	13.97
310.42	13.7
310.632	14.73
310.845	13.45
311.058	13.69
311.27	12.98
311.483	13.04
311.696	13.39
311.908	13.11
312.121	13.11
312.333	13.4
312.546	13.05
312.759	12.48
312.971	12.3
313.184	12.76
313.396	13.65
313.609	14.76
313.821	14.68
314.034	14.59
314.246	15.77
314.459	15.3
314.671	13.83
314.884	14.26
315.096	15.46
315.309	16.63
315.521	17.36
315.733	16.66
315.946	16.05
316.158	16.83
316.371	16.75
316.583	15.22
316.795	15.17
317.008	15.91
317.22	15.27
317.432	15.24
317.644	14.63
317.857	14.15
318.069	14.85
318.281	14.69
318.494	13.48
318.706	13.96
318.918	14.47
319.13	14.81
319.342	14.15
319.555	14.94
319.767	15.76
319.979	13.78
320.191	14.1
320.403	14.25
320.615	13.88
320.827	14.26
321.039	14.8
321.252	16.36
321.464	16.45
321.676	16.45
321.888	16.35
322.1	15.82
322.312	16.26
322.524	16.28
322.736	15.22
322.948	16.67
323.16	17.17
323.372	17.42
323.584	17.46
323.796	17.92
324.007	18.77
324.219	17.99
324.431	18.68
324.643	20.53
324.855	21.2
325.067	21.2
325.279	20.08
325.491	20.9
325.702	21.85
325.914	21.32
326.126	21.88
326.338	21.08
326.55	21.67
326.761	21.19
326.973	21
327.185	20.2
327.396	21.72
327.608	23.01
327.82	22.46
328.032	21.67
328.243	21.99
328.455	22.44
328.666	22.79
328.878	23.95
329.09	23.72
329.301	24.31
329.513	24.49
329.725	24.56
329.936	25.34
330.148	24.95
330.359	25.51
330.571	25.86
330.782	24.75
330.994	25.84
331.205	25.16
331.417	25.46
331.628	25.41
331.84	27.17
332.051	27.17
332.262	26.75
332.474	27.58
332.685	29.03
332.897	28.91
333.108	30.39
333.319	30.33
333.531	31.1
333.742	31.17
333.953	30.53
334.165	29.43
334.376	29.96
334.587	30.53
334.799	29.67
335.01	28.06
335.221	28.18
335.432	26.2
335.644	26.8
335.855	25.96
336.066	26.23
336.277	26.8
336.488	27.48
336.7	26.46
336.911	26.54
337.122	27.56
337.333	27.31
337.544	26.87
337.755	28.22
337.966	27.79
338.177	28.28
338.388	28.02
338.599	28.44
338.811	27.72
339.022	28.12
339.233	27.8
339.444	26.65
339.655	26.27
339.866	27.04
340.076	26.69
340.287	25.96
340.498	26.03
340.709	26.24
340.92	25.95
341.131	26.42
341.342	26.77
341.553	25
341.764	26.63
341.975	27.67
342.185	27.26
342.396	27.74
342.607	28.09
342.818	27.89
343.029	27.56
343.239	27.02
343.45	26.21
343.661	26.34
343.872	28.37
344.082	26.91
344.293	25.97
344.504	25.98
344.714	25.78
344.925	26.2
345.136	25.89
345.346	24.62
345.557	24.68
345.768	24.33
345.978	24.67
346.189	23.52
346.399	23.16
346.61	23.52
346.821	23.23
347.031	23.15
347.242	23.1
347.452	23.25
347.663	24.97
347.873	25.47
348.084	26.12
348.294	24.23
348.504	24.75
348.715	25.5
348.925	25.31
349.136	25.26
349.346	25.24
349.557	24.73
349.767	25.92
349.977	26.09
350.188	25.2
350.398	25.6
350.608	25.82
350.819	25.93
351.029	25.26
351.239	25.86
351.449	25.43
351.66	25.34
351.87	25.71
352.08	24.35
352.29	23.65
352.501	23.7
352.711	23.18
352.921	23.93
353.131	22.55
353.341	23.21
353.552	22.45
353.762	22.93
353.972	22.44
354.182	22.8
354.392	23.43
354.602	23.98
354.812	24.81
355.022	24.84
355.232	25.02
355.442	26.4
355.652	26.67
355.862	26.96
356.072	27.45
356.282	27.14
356.492	26.02
356.702	25.32
356.912	24.35
357.122	24.64
357.332	24.94
357.542	24.33
357.752	23.97
357.962	23.72
358.171	23.84
358.381	22.82
358.591	22.81
358.801	23.23
359.011	23.23
359.221	23.95
359.43	22.73
359.64	22.25
359.85	22.17
360.06	21.65
360.269	21.45
360.479	21.75
360.689	22.86
360.899	23.46
361.108	23.43
361.318	23.39
361.528	22.57
361.737	22.48
361.947	22.49
362.156	22.93
362.366	22.87
362.576	22.91
362.785	22.23
362.995	21.29
363.204	20.71
363.414	20.77
363.623	20.88
363.833	21.37
364.042	21.18
364.252	21.04
364.461	20.59
364.671	21.15
364.88	21
365.09	21.65
365.299	22.44
365.509	23.13
365.718	22.46
365.927	22.44
366.137	22.35
366.346	22.8
366.555	22.97
366.765	23.24
366.974	23.01
367.183	22.31
367.393	21.7
367.602	20.67
367.811	20.2
368.021	20.62
368.23	20.37
368.439	20.49
368.648	20.45
368.857	20.21
369.067	19.66
369.276	19.5
369.485	20.46
369.694	20.55
369.903	21.13
370.112	20.42
370.321	19.76
370.531	19.63
370.74	19.29
370.949	18.76
371.158	18.72
371.367	19.09
371.576	18.58
371.785	18.5
371.994	18.42
372.203	18.06
372.412	18.07
372.621	18.93
372.83	18.85
373.039	19.13
373.248	19.23
373.457	19.16
373.666	18.37
373.874	18.63
374.083	18.1
374.292	18.33
374.501	18.53
374.71	18.77
374.919	18.3
375.128	18.49
375.336	18.59
375.545	18.98
375.754	18.61
375.963	18.6
376.171	18.43
376.38	18.76
376.589	18.09
376.798	17.34
377.006	17.52
377.215	17.64
377.424	17.57
377.632	16.79
377.841	16.35
378.05	16.4
378.258	16.43
378.467	16.5
378.675	16.13
378.884	16.13
379.093	16.43
379.301	16.51
379.51	15.96
379.718	15.94
379.927	16.39
380.135	16.75
380.344	16.54
380.552	17.12
380.761	17.11
380.969	17.32
381.177	17.35
381.386	17.79
381.594	17.37
381.803	17.6
382.011	17.48
382.219	16.97
382.428	16.55
382.636	16.53
382.845	15.42
383.053	15.42
383.261	14.7
383.469	14.75
383.678	14.33
383.886	14.29
384.094	14.17
384.302	14.28
384.511	14.45
384.719	14.24
384.927	14.34
385.135	15.06
385.343	14.48
385.552	14.87
385.76	14.75
385.968	14.85
386.176	14.75
386.384	14.07
386.592	13.51
386.8	13.81
387.008	14.31
387.216	14.41
387.424	14.13
387.633	14.19
387.841	13.97
388.049	14.28
388.257	14.42
388.465	14.11
388.672	14.76
388.88	14.91
389.088	14.38
389.296	14.02
389.504	13.47
389.712	13.56
389.92	13.65
390.128	13.66
390.336	13.26
390.544	12.63
390.751	12.95
390.959	12.67
391.167	12.42
391.375	12.85
391.583	12.81
391.79	13.12
391.998	13.18
392.206	13.27
392.414	12.78
392.621	12.77
392.829	12.97
393.037	12.62
393.244	12.49
393.452	12.72
393.66	12.3
393.867	11.92
394.075	11.38
394.283	10.9
394.49	10.46
394.698	10.95
394.905	10.95
395.113	11.2
395.32	11.17
395.528	11.18
395.735	10.93
395.943	10.87
396.15	11
396.358	11.13
396.565	11.31
396.773	11.77
396.98	11.66
397.188	11.39
397.395	11.45
397.602	11.48
397.81	11.46
398.017	11.64
398.225	11.71
398.432	11.91
398.639	12.06
398.847	11.6
399.054	11.18
399.261	10.98
399.468	11.02
399.676	10.65
399.883	10.75
400.09	10.84
400.297	10.65
400.505	10.49
400.712	10.29
400.919	10.58
401.126	10.99
401.333	11.01
401.54	11.04
401.748	10.95
401.955	10.84
402.162	10.76
402.369	10.75
402.576	10.77
402.783	10.33
402.99	10.2
403.197	9.68
403.404	9.44
403.611	9.18
403.818	9
404.025	8.94
404.232	8.9
404.439	8.83
404.646	8.62
404.853	8.3
405.06	8.11
405.267	8.37
405.474	8.33
405.681	8.7
405.887	9.13
406.094	9.5
406.301	9.63
406.508	9.68
406.715	9.99
406.922	9.95
407.128	10.32
407.335	10.65
407.542	10.56
407.749	10.59
407.955	10.39
408.162	9.98
408.369	9.48
408.575	9.46
408.782	9.45
408.989	9.21
409.195	9.17
409.402	9.39
409.609	9.3
409.815	9.15
410.022	9.51
410.228	9.47
410.435	9.77
410.642	10.17
410.848	10.13
411.055	10.34
411.261	10.3
411.468	10.54
411.674	10.06
411.881	10.46
412.087	10.37
412.294	10.51
412.5	10.42
412.706	10.19
412.913	10.08
413.119	10.09
413.326	9.48
413.532	9.27
413.738	9.3
413.945	9.08
414.151	9.13
414.357	9.1
414.564	8.69
414.77	8.75
414.976	8.85
415.182	9
415.389	8.65
415.595	8.85
415.801	8.81
416.007	8.64
416.214	8.87
416.42	8.71
416.626	8.54
416.832	8.69
417.038	8.59
417.244	8.39
417.45	8.07
417.657	8.14
417.863	7.98
418.069	8.17
418.275	8.19
418.481	8.11
418.687	8.15
418.893	8.06
419.099	8
419.305	7.8
419.511	7.93
419.717	7.97
419.923	7.96
420.129	8.06
420.335	8.09
420.541	8.12
420.746	8.06
420.952	8
421.158	8.19
421.364	8.09
421.57	8.34
421.776	8.29
421.982	8.32
422.187	8.27
422.393	8.14
422.599	7.97
422.805	7.84
423.01	7.91
423.216	7.84
423.422	7.84
423.628	7.93
423.833	7.69
424.039	7.58
424.245	7.7
424.45	7.73
424.656	7.81
424.862	7.87
425.067	7.81
425.273	7.87
425.478	7.86
425.684	7.72
425.889	7.71
426.095	7.85
426.301	7.99
426.506	7.82
426.712	7.94
426.917	8.04
427.123	7.79
427.328	7.87
427.533	7.83
427.739	7.78
427.944	7.88
428.15	7.63
428.355	7.72
428.561	7.69
428.766	7.74
428.971	7.46
429.177	7.22
429.382	7.31
429.587	7.39
429.793	7.21
429.998	7.43
430.203	7.28
430.408	7.41
430.614	7.32
430.819	7.35
431.024	7.2
431.229	7.31
431.434	7.61
431.64	7.68
431.845	7.75
432.05	7.86
432.255	7.61
432.46	7.83
432.665	7.71
432.87	7.62
433.076	7.54
433.281	7.59
433.486	7.55
433.691	7.34
433.896	7.35
434.101	7.17
434.306	7.15
434.511	7.24
434.716	7.22
434.921	7.6
435.126	7.74
435.331	7.75
435.535	7.75
435.74	7.68
435.945	7.67
436.15	7.67
436.355	7.87
436.56	7.87
436.765	7.93
436.97	7.76
437.174	7.51
437.379	7.36
437.584	7.42
437.789	7.19
437.993	7.29
438.198	7.4
438.403	7.53
438.608	7.54
438.812	7.28
439.017	7.18
439.222	7.33
439.426	7.26
439.631	7.22
439.836	7.31
440.04	7.54
440.245	7.41
440.45	7.23
440.654	7.16
440.859	7
441.063	7.28
441.268	7.35
441.472	7.29
441.677	7.26
441.881	7.24
442.086	7.18
442.29	6.92
442.495	7.14
442.699	7.32
442.904	7.2
443.108	7.44
443.312	7.47
443.517	7.4
443.721	7.37
443.925	7.28
444.13	7.2
444.334	6.98
444.538	7.23
444.743	7.1
444.947	7.02
445.151	7.17
445.356	7.15
445.56	7.15
445.764	7.04
445.968	7.17
446.173	7.2
446.377	7.33
446.581	7.42
446.785	7.26
446.989	7.26
447.193	7.23
447.398	7.16
447.602	6.87
447.806	6.71
448.01	6.74
448.214	6.58
448.418	6.45
448.622	6.4
448.826	6.36
449.03	6.42
449.234	6.56
449.438	6.53
449.642	6.6
449.846	6.89
450.05	6.87
450.254	6.75
450.458	6.61
450.662	6.81
450.866	6.7
451.069	6.76
451.273	6.8
451.477	6.64
451.681	6.89
451.885	6.72
452.089	6.71
452.292	6.7
452.496	6.77
452.7	6.98
452.904	7
453.107	7.07
453.311	6.79
453.515	6.82
453.719	6.79
453.922	6.66
454.126	6.67
454.33	6.5
454.533	6.53
454.737	6.64
454.94	6.52
455.144	6.87
455.348	6.75
455.551	6.93
455.755	6.87
455.958	6.94
456.162	6.96
456.365	6.89
456.569	6.9
456.772	6.8
456.976	6.77
457.179	6.91
457.383	6.57
457.586	6.74
457.79	6.83
457.993	6.79
458.196	6.73
458.4	6.77
458.603	6.73
458.807	6.67
459.01	6.9
459.213	6.77
459.417	6.65
459.62	6.61
459.823	6.61
460.026	6.47
460.23	6.37
460.433	6.27
460.636	6.23
460.839	6.29
461.042	6.22
461.246	6.23
461.449	6.41
461.652	6.57
461.855	6.58
462.058	6.56
462.261	6.74
462.464	6.87
462.668	6.96
462.871	7.04
463.074	6.96
463.277	7.11
463.48	6.98
463.683	7.02
463.886	6.7
464.089	6.71
464.292	6.55
464.495	6.45
464.698	6.46
464.901	6.53
465.104	6.39
465.306	6.31
465.509	6.45
465.712	6.57
465.915	6.43
466.118	6.48
466.321	6.49
466.524	6.4
466.726	6.4
466.929	6.56
467.132	6.38
467.335	6.5
467.538	6.5
467.74	6.27
467.943	6.1
468.146	6.15
468.348	6.25
468.551	6.16
468.754	6.28
468.956	6.33
469.159	6.11
469.362	6.27
469.564	6.27
469.767	6.48
469.969	6.57
470.172	6.57
470.375	6.53
470.577	6.74
470.78	6.86
470.982	6.92
471.185	6.98
471.387	7.21
471.59	7.21
471.792	7.1
471.995	7.08
472.197	7.19
472.399	7.29
472.602	7.41
472.804	7.23
473.007	7.19
473.209	7.27
473.411	7.22
473.614	7.2
473.816	7.19
474.018	7.37
474.22	7.51
474.423	7.41
474.625	7.32
474.827	7.38
475.03	7.47
475.232	7.53
475.434	7.48
475.636	7.51
475.838	7.5
476.04	7.49
476.243	7.42
476.445	7.41
476.647	7.44
476.849	7.28
477.051	7.09
477.253	7.3
477.455	7.17
477.657	7.25
477.859	7.07
478.061	6.98
478.263	6.91
478.465	6.85
478.667	6.74
478.869	6.68
479.071	6.82
479.273	6.78
479.475	6.42
479.677	6.59
479.879	6.32
480.081	6.31
480.283	6.32
480.485	6.29
480.686	6.47
480.888	6.49
481.09	6.57
481.292	6.56
481.494	6.63
481.695	6.71
481.897	6.64
482.099	6.71
482.301	6.71
482.502	6.69
482.704	6.78
482.906	6.62
483.107	6.53
483.309	6.51
483.511	6.48
483.712	6.5
483.914	6.48
484.115	6.42
484.317	6.41
484.519	6.4
484.72	6.4
484.922	6.35
485.123	6.33
485.325	6.4
485.526	6.41
485.728	6.41
485.929	6.39
486.131	6.33
486.332	6.36
486.534	6.39
486.735	6.4
486.936	6.39
487.138	6.42
487.339	6.44
487.541	6.4
487.742	6.42
487.943	6.42
488.144	6.4
488.346	6.44
488.547	6.46
488.748	6.46
488.95	6.47
489.151	6.55
489.352	6.54
489.553	6.57
489.755	6.55
489.956	6.41
490.157	6.38
490.358	6.38
490.559	6.33
490.76	6.35
490.961	6.35
491.163	6.46
491.364	6.43
491.565	6.43
491.766	6.44
491.967	6.47
492.168	6.54
492.369	6.58
492.57	6.59
492.771	6.76
492.972	6.76
493.173	6.82
493.374	6.83
493.575	6.89
493.776	6.84
493.976	6.85
494.177	6.88
494.378	6.86
494.579	6.94
494.78	7.05
494.981	7.02
495.182	7.16
495.382	7.19
495.583	7.08
495.784	7.07
495.985	7.25
496.185	7.25
496.386	7.18
496.587	7.31
496.788	7.32
496.988	7.09
497.189	7.02
497.39	6.8
497.59	6.87
497.791	6.73
497.992	6.77
498.192	6.67
498.393	6.8
498.593	6.89
498.794	6.97
498.994	7.03
499.195	7.18
499.395	7.25
499.596	7.44
499.796	7.34
499.997	7.62
500.197	7.56
500.398	7.64
500.598	7.41
500.799	7.59
500.999	7.51
501.199	7.36
501.4	7.49
501.6	7.58
501.801	7.55
502.001	7.66
502.201	7.57
502.402	7.65
502.602	7.66
502.802	7.82
503.002	7.78
503.203	7.9
503.403	8.02
503.603	8.07
503.803	8.01
504.003	8.16
504.204	8.17
504.404	8.34
504.604	8.35
504.804	8.51
505.004	8.63
505.204	8.65
505.404	8.55
505.604	8.59
505.804	8.54
506.005	8.58
506.205	8.49
506.405	8.68
506.605	8.71
506.805	8.77
507.005	8.86
507.204	8.98
507.404	8.89
507.604	9.21
507.804	9.34
508.004	9.37
508.204	9.33
508.404	9.4
508.604	9.21
508.804	9.36
509.003	9.5
509.203	9.42
509.403	9.41
509.603	9.57
509.803	9.37
510.002	9.47
510.202	9.59
510.402	9.89
510.602	9.89
510.801	9.95
511.001	9.9
511.201	9.78
511.4	9.89
511.6	9.93
511.8	9.94
511.999	10.27
512.199	10.1
512.398	10.2
512.598	10.16
512.797	10.5
512.997	10.66
513.197	10.68
513.396	10.96
513.596	10.95
513.795	11.21
513.994	11.32
514.194	11.13
514.393	11.25
514.593	11.3
514.792	11.4
514.992	11.4
515.191	11.52
515.39	11.57
515.59	11.58
515.789	11.86
515.988	11.77
516.188	11.86
516.387	12.07
516.586	12.39
516.786	12.39
516.985	12.38
517.184	12.4
517.383	12.49
517.582	12.57
517.782	12.51
517.981	12.48
518.18	12.53
518.379	12.7
518.578	12.78
518.777	12.85
518.976	13
519.176	13.1
519.375	13.19
519.574	13.22
519.773	13.35
519.972	13.52
520.171	13.76
520.37	13.85
520.569	13.87
520.768	13.93
520.967	13.97
521.166	13.99
521.365	14.12
521.564	14.18
521.762	14.35
521.961	14.4
522.16	14.44
522.359	14.42
522.558	14.6
522.757	14.58
522.956	14.69
523.154	14.78
523.353	14.97
523.552	15.06
523.751	15.11
523.949	15.25
524.148	15.3
524.347	15.47
524.546	15.5
524.744	15.53
524.943	15.71
525.142	15.62
525.34	15.67
525.539	15.66
525.737	15.79
525.936	15.86
526.135	15.88
526.333	16.04
526.532	15.98
526.73	16
526.929	16.15
527.127	16.19
527.326	16.39
527.524	16.48
527.723	16.65
527.921	16.67
528.12	16.76
528.318	16.77
528.516	16.84
528.715	16.96
528.913	16.98
529.112	16.98
529.31	17.03
529.508	17.08
529.707	17.09
529.905	17.12
530.103	17.12
530.301	17.12
530.5	17.24
530.698	17.29
530.896	17.4
531.094	17.51
531.293	17.58
531.491	17.75
531.689	17.67
531.887	17.83
532.085	17.87
532.283	17.93
532.481	18.05
532.68	18.1
532.878	18.17
533.076	18.2
533.274	18.27
533.472	18.27
533.67	18.17
533.868	18.33
534.066	18.34
534.264	18.33
534.462	18.46
534.66	18.52
534.858	18.54
535.056	18.65
535.253	18.6
535.451	18.72
535.649	18.88
535.847	19.17
536.045	19.21
536.243	19.27
536.441	19.35
536.638	19.32
536.836	19.36
537.034	19.48
537.232	19.4
537.43	19.52
537.627	19.59
537.825	19.78
538.023	19.74
538.22	19.94
538.418	20.02
538.616	20.18
538.813	20.28
539.011	20.46
539.209	20.36
539.406	20.45
539.604	20.62
539.801	20.66
539.999	20.61
540.196	20.7
540.394	20.72
540.591	20.77
540.789	20.72
540.986	20.75
541.184	20.76
541.381	20.93
541.579	20.97
541.776	21
541.974	21.06
542.171	21.04
542.368	21.02
542.566	21.02
542.763	21.09
542.96	21.27
543.158	21.51
543.355	21.48
543.552	21.49
543.75	21.59
543.947	21.64
544.144	21.8
544.341	21.91
544.539	22.04
544.736	22.11
544.933	22.09
545.13	21.97
545.327	21.87
545.524	22.07
545.722	22.15
545.919	22.14
546.116	22.18
546.313	22.13
546.51	22.26
546.707	22.25
546.904	22.36
547.101	22.42
547.298	22.52
547.495	22.59
547.692	22.72
547.889	22.71
548.086	22.83
548.283	23.03
548.48	23.04
548.677	22.87
548.874	23.04
549.07	23.16
549.267	23.28
549.464	23.31
549.661	23.42
549.858	23.36
550.055	23.48
550.251	23.64
550.448	23.64
550.645	23.65
550.842	23.88
551.038	23.94
551.235	24.04
551.432	24.32
551.628	24.59
551.825	24.7
552.022	24.74
552.218	24.93
552.415	25.1
552.612	25.16
552.808	25.23
553.005	25.32
553.201	25.31
553.398	25.36
553.594	25.36
553.791	25.53
553.987	25.55
554.184	25.63
554.38	25.55
554.577	25.4
554.773	25.37
554.97	25.49
555.166	25.75
555.362	25.86
555.559	25.83
555.755	25.85
555.952	25.62
556.148	25.84
556.344	25.91
556.541	26.07
556.737	26.11
556.933	26.33
557.129	26.23
557.326	26.14
557.522	26.11
557.718	26.6
557.914	26.61
558.11	26.55
558.307	26.45
558.503	26.57
558.699	26.65
558.895	26.79
559.091	26.72
559.287	27.09
559.483	27.31
559.679	27.43
559.876	26.91
560.072	26.93
560.268	27.17
560.464	27.33
560.66	27.32
560.856	27.43
561.052	27.39
561.247	27.4
561.443	27.22
561.639	27.15
561.835	27.3
562.031	27.47
562.227	27.45
562.423	27.54
562.619	27.54
562.815	27.66
563.01	27.77
563.206	27.9
563.402	27.86
563.598	28.1
563.793	28.1
563.989	28.11
564.185	28.19
564.381	28.25
564.576	28.39
564.772	28.33
564.968	28.31
565.163	28.18
565.359	28.16
565.555	28.23
565.75	28.2
565.946	28.28
566.141	28.43
566.337	28.42
566.532	28.7
566.728	28.61
566.923	28.46
567.119	28.61
567.314	28.71
567.51	28.74
567.705	28.89
567.901	29.06
568.096	28.99
568.292	29.05
568.487	29.01
568.682	28.8
568.878	28.91
569.073	29.13
569.268	28.91
569.464	28.93
569.659	29
569.854	29.09
570.05	29.06
570.245	29.45
570.44	29.61
570.635	29.64
570.831	29.87
571.026	30.02
571.221	30.25
571.416	30.39
571.611	30.39
571.806	30.26
572.002	30.26
572.197	30.16
572.392	29.86
572.587	29.76
572.782	30.09
572.977	30.07
573.172	29.92
573.367	29.76
573.562	29.93
573.757	30.02
573.952	30.08
574.147	30.19
574.342	30.36
574.537	30.38
574.732	30.18
574.927	30.16
575.121	30.21
575.316	30.33
575.511	30.49
575.706	30.42
575.901	30.25
576.096	30.51
576.29	30.42
576.485	30.46
576.68	30.7
576.875	30.66
577.069	30.48
577.264	30.4
577.459	30.5
577.654	30.71
577.848	30.54
578.043	30.73
578.238	30.78
578.432	30.55
578.627	30.48
578.821	30.64
579.016	31.11
579.21	31.15
579.405	31.39
579.6	31.24
579.794	31.21
579.989	31.44
580.183	31.89
580.378	31.81
580.572	32.4
580.766	32.55
580.961	32.45
581.155	32.18
581.35	32.18
581.544	32.08
581.738	32.59
581.933	32.45
582.127	32.79
582.321	32.58
582.516	32.61
582.71	32.31
582.904	32.32
583.099	32.36
583.293	32.48
583.487	32.75
583.681	33.13
583.875	32.79
584.07	32.87
584.264	32.91
584.458	32.92
584.652	33.07
584.846	33.33
585.04	33.23
585.234	33.16
585.428	33.3
585.623	33.6
585.817	33.23
586.011	33.16
586.205	33.09
586.399	32.88
586.593	32.96
586.787	33.03
586.981	32.91
587.174	33.25
587.368	33.33
587.562	33.39
587.756	33.1
587.95	33.22
588.144	33.19
588.338	33.24
588.532	33.14
588.725	33.06
588.919	33.01
589.113	33.12
589.307	33.43
589.501	33.38
589.694	33.51
589.888	33.78
590.082	33.78
590.275	33.89
590.469	34.15
590.663	34.45
590.856	34.47
591.05	34.59
591.244	34.43
591.437	34.31
591.631	34.52
591.824	34.32
592.018	34.09
592.212	34.13
592.405	34.22
592.599	34.14
592.792	33.85
592.986	33.89
593.179	33.48
593.372	33.44
593.566	32.92
593.759	32.74
593.953	32.79
594.146	32.92
594.339	33.05
594.533	33.17
594.726	32.84
594.92	32.94
595.113	32.82
595.306	33.06
595.499	33.38
595.693	33.84
595.886	33.96
596.079	33.95
596.272	33.84
596.466	33.58
596.659	33.47
596.852	33.72
597.045	33.82
597.238	33.96
597.431	33.91
597.624	33.65
597.818	33.4
598.011	33.21
598.204	33.25
598.397	33.21
598.59	33.41
598.783	33.42
598.976	33.45
599.169	33.43
599.362	33.27
599.555	33.19
599.748	33.41
599.941	33.32
600.134	33.43
600.326	33.67
600.519	34.15
600.712	34.06
600.905	34.28
601.098	34.29
601.291	34.38
601.483	34.3
601.676	34.34
601.869	34.34
602.062	34.66
602.255	34.93
602.447	34.48
602.64	34.21
602.833	34.09
603.025	33.86
603.218	33.7
603.411	33.6
603.603	33.76
603.796	34.05
603.989	33.91
604.181	33.89
604.374	33.82
604.566	34.1
604.759	34.02
604.951	34.34
605.144	34.27
605.336	34.56
605.529	34.54
605.721	34.53
605.914	34.54
606.106	34.72
606.299	34.9
606.491	34.96
606.683	34.88
606.876	35.01
607.068	34.86
607.26	35.02
607.453	34.7
607.645	34.65
607.837	34.81
608.03	34.83
608.222	34.74
608.414	34.63
608.606	34.49
608.799	34.66
608.991	34.69
609.183	34.75
609.375	34.99
609.567	35.12
609.759	35.4
609.952	35.38
610.144	35.3
610.336	35.43
610.528	35.34
610.72	35.59
610.912	35.58
611.104	35.91
611.296	35.76
611.488	35.88
611.68	36.23
611.872	36.17
612.064	36.62
612.256	36.64
612.448	36.89
612.64	37.05
612.832	37.05
613.023	36.94
613.215	36.59
613.407	36.67
613.599	36.4
613.791	36.35
613.983	36.36
614.174	35.96
614.366	36.09
614.558	35.98
614.75	36.09
614.941	36.11
615.133	36.11
615.325	36.18
615.516	36.56
615.708	36.85
615.9	36.46
616.091	36.47
616.283	36.31
616.475	36.01
616.666	36.13
616.858	36.25
617.049	35.81
617.241	35.91
617.432	35.8
617.624	35.7
617.815	35.19
618.007	35.3
618.198	35.37
618.39	35.35
618.581	35.77
618.773	35.54
618.964	35.3
619.155	35.24
619.347	34.99
619.538	34.96
619.729	35.08
619.921	35.3
620.112	35.64
620.303	35.43
620.494	35.55
620.686	35.52
620.877	35.73
621.068	35.73
621.259	35.95
621.451	36.38
621.642	36.2
621.833	35.87
622.024	36.04
622.215	35.42
622.406	35.53
622.597	35.63
622.788	35.45
622.98	34.92
623.171	34.87
623.362	34.98
623.553	34.85
623.744	35.27
623.935	35.44
624.126	35.57
624.317	36.09
624.508	35.93
624.698	35.82
624.889	36.11
625.08	36.86
625.271	36.83
625.462	36.75
625.653	36.75
625.844	36.55
626.034	36.33
626.225	36.17
626.416	35.7
626.607	35.91
626.798	35.87
626.988	35.79
627.179	35.5
627.37	35.44
627.56	35.66
627.751	35.67
627.942	35.98
628.132	36.08
628.323	35.98
628.514	36.2
628.704	36.21
628.895	36.34
629.085	36
629.276	35.81
629.466	36.11
629.657	35.77
629.847	35.84
630.038	35.9
630.228	36.17
630.419	36.52
630.609	36.6
630.8	36.59
630.99	36.66
631.181	37.28
631.371	37.68
631.561	37.36
631.752	37.61
631.942	37.65
632.132	37.07
632.323	36.9
632.513	36.78
632.703	36.73
632.893	36.74
633.084	36.55
633.274	36.1
633.464	35.75
633.654	36.16
633.844	35.84
634.034	35.74
634.225	35.96
634.415	36.13
634.605	35.85
634.795	35.69
634.985	35.88
635.175	36.23
635.365	36.29
635.555	36.59
635.745	36.28
635.935	36.68
636.125	36.75
636.315	37.15
636.505	36.9
636.695	37.14
636.885	37.38
637.075	37.36
637.265	36.94
637.455	37.16
637.644	37.06
637.834	37.44
638.024	37.18
638.214	37.11
638.404	36.79
638.593	36.88
638.783	36.72
638.973	36.53
639.163	36.18
639.352	36.15
639.542	35.68
639.732	35.72
639.921	35.35
640.111	35.69
640.301	35.71
640.49	35.77
640.68	36
640.87	36.1
641.059	36.46
641.249	36.88
641.438	36.92
641.628	37.49
641.817	37.52
642.007	37.97
642.196	37.77
642.386	37.86
642.575	37.82
642.764	37.74
642.954	37.65
643.143	37.61
643.333	37.36
643.522	37.45
643.711	37.17
643.901	37.09
644.09	36.77
644.279	37.03
644.469	37.08
644.658	37.07
644.847	36.96
645.036	37.11
645.226	37.41
645.415	37.91
645.604	37.87
645.793	38.21
645.982	38.03
646.171	37.63
646.361	37.51
646.55	37.53
646.739	37.63
646.928	37.37
647.117	37.61
647.306	37.37
647.495	36.87
647.684	37.15
647.873	37.06
648.062	37.16
648.251	37.53
648.44	37.53
648.629	37.44
648.818	37.44
649.007	37.53
649.196	37.57
649.384	37.28
649.573	37.38
649.762	37
649.951	36.86
650.14	37.21
650.328	37
650.517	36.88
650.706	37.02
650.895	36.95
651.083	37.37
651.272	37.12
651.461	37.31
651.65	37.29
651.838	37.42
652.027	37.27
652.216	36.88
652.404	36.84
652.593	36.77
652.781	36.75
652.97	36.76
653.158	36.18
653.347	36.21
653.535	36.15
653.724	36.41
653.912	37.09
654.101	36.79
654.289	37.26
654.478	37.39
654.666	37.76
654.855	38.04
655.043	37.84
655.231	37.95
655.42	38.4
655.608	38.36
655.796	38.08
655.985	37.34
656.173	37.61
656.361	37.11
656.55	36.95
656.738	37.05
656.926	36.91
657.114	37.36
657.302	37.46
657.491	37.02
657.679	37.09
657.867	36.92
658.055	37.3
658.243	37.58
658.431	37.73
658.619	37.94
658.807	37.85
658.996	37.49
659.184	37.21
659.372	37.35
659.56	37.62
659.748	37.83
659.936	38.33
660.124	38.43
660.311	38.27
660.499	38.38
660.687	38.37
660.875	38.16
661.063	38.15
661.251	38.37
661.439	38.48
661.627	38.38
661.814	38.29
662.002	37.45
662.19	37.22
662.378	37.11
662.565	37.2
662.753	36.92
662.941	37.55
663.129	37.57
663.316	37.64
663.504	37.42
663.692	37.09
663.879	36.75
664.067	37.4
664.254	36.99
664.442	37.3
664.63	37.27
664.817	37.54
665.005	36.76
665.192	37.38
665.38	37.58
665.567	37.9
665.755	38.27
665.942	38.26
666.13	38.26
666.317	38.71
666.504	38.6
666.692	38.43
666.879	38.17
667.067	38.59
667.254	38.6
667.441	38.19
667.629	38.02
667.816	37.44
668.003	37.84
668.19	38.01
668.378	37.91
668.565	38.02
668.752	37.99
668.939	38.3
669.127	38.09
669.314	37.23
669.501	37.24
669.688	37.4
669.875	37.65
670.062	37.54
670.249	37.25
670.436	37.62
670.623	37.59
670.81	37.92
670.997	37.88
671.184	37.76
671.371	38.77
671.558	38.51
671.745	38.6
671.932	38.73
672.119	38.93
672.306	38.98
672.493	38.52
672.68	38.74
672.867	39.2
673.054	39.11
673.24	38.95
673.427	38.3
673.614	38.81
673.801	38.8
673.988	39.25
674.174	39.32
674.361	39.14
674.548	38.91
674.734	39
674.921	38.09
675.108	38.43
675.294	38.74
675.481	39.01
675.668	39.01
675.854	38.91
676.041	38.45
676.227	38.25
676.414	38.88
676.601	39.65
676.787	39.13
676.974	39.15
677.16	38.52
677.347	38.59
677.533	38.53
677.719	38.5
677.906	38.39
678.092	38.44
678.279	38.6
678.465	38.42
678.651	38.25
678.838	38.16
679.024	38.36
679.21	38.35
679.397	38.27
679.583	38.27
679.769	37.96
679.955	37.69
680.142	37.7
680.328	37.7
680.514	37.56
680.7	37.09
680.886	37.64
681.073	37.43
681.259	37.9
681.445	38.05
681.631	38.21
681.817	38.86
682.003	38.9
682.189	38.97
682.375	38.96
682.561	39.19
682.747	38.92
682.933	38.49
683.119	38.38
683.305	38.56
683.491	38.37
683.677	38.15
683.863	37.36
684.049	37.98
684.235	37.82
684.42	37.49
684.606	37.07
684.792	38.19
684.978	38.2
685.164	38.28
685.349	38.33
685.535	38.6
685.721	38.76
685.907	38.72
686.092	37.95
686.278	38.21
686.464	38.91
686.649	39.17
686.835	39.17
687.021	39.45
687.206	39.63
687.392	39.28
687.577	39.55
687.763	39.6
687.948	39.99
688.134	40.2
688.319	39.98
688.505	39.37
688.69	39.22
688.876	38.84
689.061	38.7
689.247	38.85
689.432	38.93
689.618	38.11
689.803	37.84
689.988	37.88
690.174	38.25
690.359	38.13
690.544	38.04
690.73	37.87
690.915	37.82
691.1	37.95
691.285	37.92
691.471	37.56
691.656	38.07
691.841	38.22
692.026	37.79
692.211	37.32
692.396	37.69
692.582	38.47
692.767	38.47
692.952	38.76
693.137	38.5
693.322	38.62
693.507	39.62
693.692	39.91
693.877	40.21
694.062	40.51
694.247	41.71
694.432	41.9
694.617	41.4
694.802	41.78
694.987	41.31
695.172	41.67
695.357	41.26
695.541	40.56
695.726	40.69
695.911	40.66
696.096	40.92
696.281	40.04
696.466	39.68
696.65	39.68
696.835	39.71
697.02	39.1
697.204	39.21
697.389	39.49
697.574	39.2
697.759	38.86
697.943	38.44
698.128	38.47
698.312	38.6
698.497	38.5
698.682	38.62
698.866	38.33
699.051	38.97
699.235	39
699.42	38.8
699.604	38.85
699.789	38.69
699.973	39.07
700.158	39.1
700.342	38.92
700.527	39.21
700.711	39.12
700.895	39.37
701.08	39.34
701.264	39.04
701.448	38.81
701.633	39.46
701.817	39.66
702.001	39.7
702.186	39.05
702.37	38.82
702.554	38.89
702.738	38.94
702.923	39.02
703.107	38.91
703.291	39.58
703.475	40.47
703.659	39.81
703.843	39.5
704.027	39.52
704.212	39.26
704.396	39.68
704.58	39.5
704.764	39.49
704.948	39.42
705.132	39.64
705.316	39.38
705.5	39.99
705.684	39.81
705.868	40.39
706.052	39.97
706.235	41
706.419	40.89
706.603	41.02
706.787	40.59
706.971	40.55
707.155	40.64
707.339	40.62
707.522	39.43
707.706	40.14
707.89	40.02
708.074	40.31
708.257	39.51
708.441	39.88
708.625	39.94
708.808	40.24
708.992	40.69
709.176	40.59
709.359	40.64
709.543	40.64
709.727	40.57
709.91	40.66
710.094	40.74
710.277	41.72
710.461	41.59
710.644	41.67
710.828	41.99
711.011	40.86
711.195	40.37
711.378	39.84
711.562	40.08
711.745	39.45
711.928	39.42
712.112	39.02
712.295	38.14
712.478	37.65
712.662	37.69
712.845	37.46
713.028	37.83
713.212	38.14
713.395	37.74
713.578	37.59
713.761	37.88
713.945	37.71
714.128	38.47
714.311	38.99
714.494	39.36
714.677	38.92
714.86	39.28
715.043	39.86
715.227	40.01
715.41	40.98
715.593	40.97
715.776	41.12
715.959	40.66
716.142	40.48
716.325	40.76
716.508	40.8
716.691	40.92
716.874	40.24
717.057	39.63
717.239	39.51
717.422	38.55
717.605	38.79
717.788	38.9
717.971	40.36
718.154	40.13
718.337	40.92
718.519	41.17
718.702	41.29
718.885	41.21
719.068	41
719.25	41.27
719.433	42.54
719.616	42.43
719.798	42.85
719.981	42.53
720.164	42.5
720.346	41.26
720.529	41.51
720.712	40.75
720.894	41.2
721.077	42.14
721.259	41.83
721.442	40.76
721.624	41.12
721.807	41.3
721.989	40.63
722.172	40.46
722.354	41.19
722.537	40.82
722.719	41.16
722.901	41.8
723.084	41.25
723.266	41.9
723.448	42.7
723.631	41.63
723.813	41.74
723.995	41.58
724.178	41.86
724.36	40.85
724.542	39.93
724.724	40.75
724.907	40.27
725.089	41.27
725.271	41.67
725.453	41.69
725.635	42.48
725.817	41.89
725.999	42.81
726.181	43.4
726.364	43.55
726.546	44.83
726.728	44.4
726.91	43.63
727.092	42.61
727.274	42.6
727.456	42.39
727.638	41.95
727.819	42.37
728.001	41.86
728.183	40.96
728.365	41.44
728.547	41.09
728.729	41.35
728.911	42.46
729.093	43.05
729.274	41.58
729.456	41.52
729.638	42.18
729.82	41.72
730.001	41.22
730.183	41.39
730.365	41.11
730.546	41.15
730.728	40.77
730.91	39.94
731.091	40.13
731.273	40.8
731.455	40.93
731.636	41.2
731.818	41.23
731.999	41.52
732.181	41.82
732.362	41.56
732.544	42.39
732.725	41.76
732.907	41.79
733.088	41.39
733.27	42.11
733.451	42.54
733.633	42.06
733.814	42.74
733.995	42.47
734.177	42.92
734.358	43.4
734.539	42.26
734.721	43.17
734.902	43.6
735.083	44.13
735.264	43.06
735.446	42.63
735.627	42.37
735.808	41.76
735.989	42.51
736.17	41.62
736.351	41.82
736.533	41.88
736.714	41.53
736.895	40.43
737.076	38.95
737.257	39.61
737.438	38.56
737.619	39.89
737.8	39.56
737.981	40.2
738.162	40.46
738.343	40.02
738.524	40.07
738.705	40.08
738.886	40.5
739.067	41.43
739.247	40.84
739.428	40.55
739.609	39.52
739.79	39.81
739.971	39.23
740.151	39.44
740.332	39.44
740.513	40.27
740.694	41.03
740.874	41.4
741.055	41.54
741.236	42.12
741.417	44.08
741.597	43.14
741.778	43.63
741.958	42.72
742.139	41.71
742.32	41.32
742.5	39.93
742.681	39.41
742.861	40.17
743.042	39.18
743.222	38.24
743.403	37.42
743.583	39.42
743.764	40.24
743.944	41.17
744.124	41.58
744.305	41.84
744.485	42.62
744.666	43.02
744.846	41.92
745.026	43.29
745.207	45.51
745.387	44.78
745.567	43.45
745.747	41.46
745.928	39.89
746.108	40.72
746.288	41.01
746.468	41.88
746.648	41.31
746.829	42.23
747.009	42.31
747.189	41.47
747.369	41.57
747.549	42.49
747.729	43.7
747.909	44.82
748.089	44.82
748.269	45.05
748.449	44.35
748.629	44.62
748.809	44.17
748.989	43.41
749.169	43.24
749.349	43.61
749.529	42.93
749.709	42.89
749.889	42.85
750.068	42.06
750.248	41.99
750.428	42.06
750.608	41.58
750.788	42.64
750.967	43.14
751.147	42.06
751.327	43.39
751.507	43.51
751.686	43.38
751.866	43.78
752.046	44.41
752.225	44.02
752.405	44.14
752.585	44.54
752.764	43.77
752.944	42.83
753.123	44.04
753.303	42.58
753.482	42.35
753.662	42.26
753.841	41.54
754.021	40.37
754.2	41.28
754.38	40.99
754.559	41.06
754.739	41.55
754.918	42.76
755.097	42.33
755.277	41.33
755.456	40.84
755.635	40.55
755.815	41.73
755.994	42.91
756.173	41.16
756.352	40.38
756.532	39.98
756.711	38.57
756.89	38.77
757.069	39.05
757.248	39.56
757.427	40.36
757.607	40.16
757.786	39.82
757.965	38.7
758.144	39.79
758.323	41.59
758.502	43.12
758.681	43.36
758.86	42.67
759.039	42.41
759.218	42.87
759.397	42.97
759.576	43.28
759.755	41.74
759.934	42.49
760.113	42
760.291	40.52
760.47	39.89
760.649	40.29
760.828	39.79
761.007	38.99
761.186	39.7
761.364	39.86
761.543	39.98
761.722	41.76
761.901	41.34
762.079	42.48
762.258	41.71
762.437	41.63
762.615	41.51
762.794	42.32
762.972	42.49
763.151	41
763.33	40.6
763.508	40.2
763.687	40.58
763.865	40.84
764.044	39.75
764.222	40.52
764.401	40.08
764.579	40.45
764.758	39.28
764.936	39.8
765.114	41.03
765.293	40.72
765.471	40.77
765.65	39.59
765.828	39.95
766.006	40.59
766.184	39.99
766.363	40.65
766.541	39.13
766.719	39.93
766.898	39.92
767.076	39.56
767.254	40.07
767.432	40.67
767.61	41.26
767.788	41.83
767.967	41.16
768.145	42.11
768.323	40.9
768.501	41.74
768.679	42.07
768.857	41.92
769.035	41.64
769.213	44.04
769.391	43.22
769.569	43.18
769.747	43.4
769.925	42.34
770.103	43.15
770.281	42.94
770.459	44.39
770.636	44.25
770.814	44.99
770.992	47.13
771.17	46.02
771.348	46.38
771.525	46.41
771.703	45.75
771.881	47.51
772.059	46.9
772.236	46.39
772.414	45.84
772.592	44.55
772.769	42.59
772.947	40.72
773.125	38.98
773.302	39.85
773.48	39.08
773.657	39.1
773.835	38.94
774.013	39.55
774.19	42.1
774.368	40.22
774.545	42.5
774.723	43.53
774.9	44.64
775.077	44.05
775.255	43.4
775.432	44.12
775.61	42.01
775.787	42.14
775.964	39.69
776.142	37.55
776.319	39.7
776.496	39.73
776.674	40.62
776.851	41.21
777.028	42.38
777.205	42.94
777.382	43.97
777.56	47.2
777.737	50.16
777.914	51.37
778.091	51.04
778.268	49.45
778.445	49.83
778.622	49.06
778.8	49.09
778.977	49.25
779.154	52.83
779.331	52.2
779.508	51.75
779.685	50.85
779.862	52.63
780.038	53.72
780.215	58.05
780.392	57.23
780.569	56.99
780.746	54.52
780.923	52.59
781.1	47.68
781.277	45.72
781.453	44.11
781.63	41.35
781.807	41.3
781.984	41.08
782.16	39.56
782.337	40.19
782.514	39.76
782.691	40.88
782.867	41.37
783.044	43.82
783.221	46.06
783.397	45.67
783.574	46.57
783.75	44.7
783.927	46.22
784.103	44.27
784.28	42.48
784.456	42.38
784.633	42.47
784.809	44.79
784.986	40.98
785.162	39.99
785.339	41.26
785.515	40.92
785.692	42.45
785.868	42.49
786.044	43.46
786.221	45.37
786.397	48.56
786.573	46.09
786.749	45.82
786.926	48.06
787.102	48.88
787.278	49.06
787.454	51.24
787.631	50.05
787.807	49.38
787.983	49.56
788.159	47.22
788.335	45.46
788.511	46.55
788.687	45.99
788.863	46.95
789.039	47.51
789.216	45.22
789.392	44.55
789.568	45.74
789.744	45.9
789.919	45.28
790.095	45.69
790.271	45.92
790.447	46.89
790.623	46.72
790.799	45.46
790.975	42.26
791.151	45.42
791.327	44.96
791.502	42.9
791.678	44.1
791.854	44.84
792.03	45.32
792.205	43.25
792.381	41.34
792.557	40.66
792.733	40.52
792.908	41.87
793.084	40.45
793.259	38.58
793.435	37.53
793.611	36.18
793.786	35.36
793.962	34.67
794.137	37.22
794.313	38.39
794.488	40.3
794.664	42.2
794.839	43.1
795.015	42.71
795.19	42.98
795.366	45.02
795.541	44.75
795.716	42.07
795.892	42.8
796.067	42.65
796.242	45.12
796.418	43.96
796.593	41.41
796.768	40.34
796.944	43.22
797.119	42.63
797.294	42.55
797.469	42.95
797.644	42.74
797.82	44.54
797.995	45.34
798.17	42.39
798.345	43.45
798.52	45.47
798.695	46
798.87	41.71
799.045	42.35
799.22	40.76
799.395	42.4
799.57	44.46
799.745	43.55
799.92	43.08
800.095	44.3
800.27	41.46
800.445	39.59
800.62	40.2
800.795	41.5
800.97	46.05
801.145	46.58
801.319	43.11
801.494	43.05
801.669	46.13
801.844	44.71
802.018	43.38
802.193	46.76
802.368	47.33
802.543	46.09
802.717	50.29
802.892	45.3
803.067	47.77
803.241	49.46
803.416	49.77
803.59	48.63
803.765	47.69
803.94	51.36
804.114	49.53
804.289	50.46
804.463	50.33
804.638	45.68
804.812	47.94
804.986	45.57
805.161	46.78
805.335	48.52
805.51	44.16
805.684	43.2
805.858	41.47
806.033	43.09
806.207	39.93
806.381	42.19
806.556	43.85
806.73	43.35
806.904	46.5
807.078	46.43
807.253	44.91
807.427	47.48
807.601	48.12
807.775	50.38
807.949	50.63
808.123	50.43
808.298	51.35
808.472	49.87
808.646	47.76
808.82	45.77
808.994	44.56
809.168	46.62
809.342	48.11
809.516	51.68
809.69	49.88
809.864	48.78
810.038	49.27
810.212	48.02
810.385	46.41
810.559	50.01
810.733	51.06
810.907	52.47
811.081	48.23
811.255	47.41
811.428	44.65
811.602	40.59
811.776	40.12
811.95	43.44
812.123	44.25
812.297	48.42
812.471	44.97
812.644	45.57
812.818	46.53
812.992	50.42
813.165	49.47
813.339	47.83
813.512	49.6
813.686	49.3
813.86	48.71
814.033	45.1
814.207	42.64
814.38	43.04
814.554	42.86
814.727	43.85
814.9	43.42
815.074	38.78
815.247	38.96
815.421	37.28
815.594	38.71
815.767	35.97
815.941	38.03
816.114	43.02
816.287	42.42
816.46	40.72
816.634	34.71
816.807	37.59
816.98	41.83
817.153	44.04
817.327	47.49
817.5	48.34
817.673	52.99
817.846	52.61
818.019	51.9
818.192	55.67
818.365	55.25
818.538	58.45
818.711	54.94
818.884	52.29
819.057	52.66
819.23	51.26
819.403	50.57
819.576	49.47
819.749	51.57
819.922	49.89
820.095	46.65
820.268	47.43
820.441	47.05
820.614	47.85
820.786	48.47
820.959	48.36
821.132	45.95
821.305	43.72
821.477	42.63
821.65	41.34
821.823	40.36
821.996	40.03
822.168	39.95
822.341	39.39
822.514	37.98
822.686	38.1
822.859	37.63
823.031	37.38
823.204	37.55
823.376	37.84
823.549	37.85
823.722	38.29
823.894	39.23
824.067	38.64
824.239	39.3
824.411	39.73
824.584	40.28
824.756	40.53
824.929	41.23
825.101	41.51
825.273	41.59
825.446	41.77
825.618	41.89
825.79	41.62
825.963	41.35
826.135	40.56
826.307	42.07
826.479	41.97
826.652	41.7
826.824	42.43
826.996	42.74
827.168	42.69
827.34	42.95
827.512	43.29
827.684	42.66
827.856	43.52
828.029	43.97
828.201	42.36
828.373	41.95
828.545	42.05
828.717	42.58
828.889	41.81
829.061	42.44
829.232	42.36
829.404	42.16
829.576	42.07
829.748	42.24
829.92	45.45
830.092	46.79
830.264	48.06
830.436	49.53
830.607	49.64
830.779	51.87
830.951	50.97
831.123	50.96
831.294	51.38
831.466	51.97
831.638	53.85
831.809	51.1
831.981	49.4
832.153	48.51
832.324	45.81
832.496	44.98
832.667	45.65
832.839	49.53
833.011	48.27
833.182	47.67
833.354	50.05
833.525	48.71
833.697	46.06
833.868	45.05
834.039	45.13
834.211	46.7
834.382	46.12
834.554	45.94
834.725	44.04
834.896	43.68
835.068	44.01
835.239	43.27
835.41	44.64
835.581	46.02
835.753	47.41
835.924	46.55
836.095	46.16
836.266	47.47
836.438	46.14
836.609	46.04
836.78	45.72
836.951	45.44
837.122	43.83
837.293	43.2
837.464	40.98
837.635	42.52
837.806	42.35
837.977	41.79
838.148	42.64
838.319	43.47
838.49	45.76
838.661	44.31
838.832	47.61
839.003	47.13
839.174	46.51
839.345	53.5
839.516	50.93
839.687	53.65
839.857	50.27
840.028	50.12
840.199	48.95
840.37	48.31
840.54	55.15
840.711	53.15
840.882	55.45
841.053	55.12
841.223	47.18
841.394	50.96
841.564	53.63
841.735	65.4
841.906	62.83
842.076	62.21
842.247	60.09
842.417	54.5
842.588	56.9
842.758	56.62
842.929	58.53
843.099	66.18
843.27	63.25
843.44	60.19
843.611	55.4
843.781	58.13
843.951	61.72
844.122	62.41
844.292	60.1
844.462	58.86
844.633	63.49
844.803	61.75
844.973	54.4
845.144	55.61
845.314	53.02
845.484	52.87
845.654	46.72
845.824	50.6
845.995	41.87
846.165	49.84
846.335	49.13
846.505	44.24
846.675	45.03
846.845	53.11
847.015	60.16
847.185	61.34
847.355	57.92
847.525	63.6
847.695	61.24
847.865	68.75
848.035	64.47
848.205	54.37
848.375	59.73
848.545	58.15
848.715	57.17
848.884	52.28
849.054	49.01
849.224	50.86
849.394	51.92
849.564	45.17
849.733	51.35
849.903	47.31
850.073	49.82
850.243	50.11
850.412	57.94
850.582	57.63
850.752	50.31
850.921	50.03
851.091	55.95
851.26	58.02
851.43	58.59
851.599	61.64
851.769	64.6
851.939	69.08
852.108	58.46
852.278	53.9
852.447	56.91
852.616	64.08
852.786	71.93
852.955	72.33
853.125	67.01
853.294	68.56
853.463	65.39
853.633	68.22
853.802	72.1
853.971	88.75
854.141	74.48
854.31	71.77
854.479	61.46
854.648	60.89
854.818	54.29
854.987	40.82
855.156	42.03
855.325	35.39
855.494	38.65
855.663	26.79
855.832	28.2
856.001	34.67
856.171	26.56
856.34	40.54
856.509	45.85
856.678	44.38
856.847	61.54
857.016	54.77
857.185	52
857.353	60.91
857.522	59.53
857.691	57.86
857.86	68.91
858.029	80.45
858.198	78.93
858.367	74.36
858.535	72.26
858.704	73.13
858.873	85.49
859.042	88.15
859.21	96.91
859.379	92.16
859.548	84.16
859.717	74.71
859.885	73.79
860.054	67.78
860.222	61.58
860.391	60.78
860.56	64.34
860.728	68.78
860.897	71.05
861.065	69.99
861.234	69.19
861.402	67.56
861.571	64.18
861.739	64.29
861.908	72.5
862.076	83.33
862.244	81.89
862.413	76.79
862.581	71.17
862.749	69.78
862.918	61.51
863.086	64.96
863.254	71.02
863.423	81.95
863.591	76.82
863.759	55.98
863.927	41.97
864.096	43.72
864.264	48.97
864.432	50.01
864.6	56.12
864.768	63.51
864.936	68.32
865.104	63.42
865.272	60.64
865.44	65.7
865.608	76.09
865.776	80.27
865.944	84.91
866.112	90.34
866.28	98.05
866.448	90.16
866.616	102.36
866.784	98.48
866.952	88.92
867.12	96.72
867.288	85.74
867.455	97.6
867.623	93.82
867.791	79.99
867.959	86.69
868.127	74.2
868.294	76.59
868.462	54.4
868.63	47.2
868.797	45.29
868.965	37.18
869.133	50.57
869.3	45.81
869.468	49.2
869.636	56.7
869.803	54.18
869.971	49.87
870.138	43.36
870.306	50.25
870.473	51.09
870.641	55.89
870.808	57.73
870.975	51.61
871.143	44.62
871.31	37.38
871.478	25.24
871.645	12.14
871.812	20.25
871.98	22.63
872.147	5.98
872.314	11.74
872.482	10
872.649	12
872.816	18.09
872.983	27.92
873.15	43.81
873.318	54.06
873.485	62.28
873.652	54.6
873.819	58.11
873.986	74.68
874.153	84.5
874.32	98.8
874.487	100.08
874.654	112.85
874.821	117.74
874.988	111.18
875.155	115.75
875.322	99.91
875.489	121.11
875.656	120.86
875.823	105.92
875.99	92.7
876.157	83.76
876.324	84.21
876.49	78.26
876.657	77.23
876.824	66.89
876.991	61.23
877.157	62.23
877.324	63.67
877.491	63.74
877.658	58.86
877.824	58.89
877.991	60.17
878.157	63.76
878.324	58.81
878.491	52.75
878.657	62.69
878.824	70.37
878.99	66.44
879.157	61.28
879.323	53.64
879.49	55.48
879.656	55.27
879.823	56.81
879.989	52.53
880.156	51.66
880.322	54.89
880.488	49.15
880.655	44.7
880.821	49.99
880.987	51.76
881.154	55.65
881.32	62.29
881.486	58.56
881.652	58.88
881.819	62.3
881.985	62.46
882.151	62.25
882.317	57.49
882.483	56.55
882.649	54.48
882.816	52.18
882.982	51.45
883.148	47.01
883.314	44.45
883.48	42.86
883.646	41.55
883.812	40.47
883.978	40.86
884.144	41.3
884.31	43.01
884.476	41.86
884.642	42.15
884.807	42.71
884.973	42.91
885.139	45.67
885.305	45.4
885.471	44.24
885.637	45.92
885.802	44.21
885.968	44.19
886.134	44.14
886.3	47.07
886.465	46.42
886.631	44.9
886.797	47.77
886.962	44.4
887.128	50.21
887.293	53.76
887.459	48.03
887.625	52.83
887.79	53.62
887.956	46.26
888.121	43.66
888.287	45.72
888.452	47.51
888.618	43.56
888.783	51.07
