Data from CB_112_Reflection_1.txt Node
Date: Sat Nov 14 18:18:20 EST 2015
User: robert
Spectrometer: USB4E03001
Autoset integration time: false
Trigger mode: 4
Integration Time (sec): 1.000000E-1
Scans to average: 15
Electric dark correction enabled: true
Nonlinearity correction enabled: false
Boxcar width: 5
Stray light correction enabled: false
XAxis mode: Wavelengths
Stop averaging: false
Number of Pixels in Spectrum: 3648
>>>>>Begin Spectral Data<<<<<
177.566	263.84
177.785	-2379.8
178.005	605.21
178.225	589.87
178.445	-414.74
178.665	165.8
178.885	570.1
179.105	99.27
179.324	137.83
179.544	66.01
179.764	60.88
179.984	71.38
180.204	49.35
180.423	47.11
180.643	57.97
180.863	19.17
181.083	28.29
181.302	35.41
181.522	49.63
181.742	46.67
181.961	74.76
182.181	110.34
182.401	168.4
182.621	157.1
182.84	170.8
183.06	53.92
183.279	19.49
183.499	46.91
183.719	-19.27
183.938	-32.77
184.158	18.36
184.377	10.07
184.597	5.3
184.816	40.11
185.036	35.57
185.256	40.71
185.475	63.18
185.695	72.62
185.914	58.69
186.134	60.5
186.353	61.96
186.572	48.32
186.792	50.24
187.011	56.33
187.231	58.32
187.45	67.4
187.67	60.01
187.889	58.98
188.108	57.63
188.328	63.26
188.547	75.44
188.766	78.92
188.986	83.52
189.205	87.26
189.424	72.62
189.644	87.9
189.863	97
190.082	105.18
190.302	94.42
190.521	67.85
190.74	68.21
190.959	76.32
191.178	85.12
191.398	86.99
191.617	90.64
191.836	100.86
192.055	64.58
192.274	55.87
192.494	91.7
192.713	171.93
192.932	305.4
193.151	474.13
193.37	296.33
193.589	257.87
193.808	394.63
194.027	641.59
194.246	-1805.91
194.465	2053.92
194.685	126.76
194.904	153.1
195.123	58.38
195.342	17.58
195.561	29.5
195.78	14.84
195.999	13.92
196.218	3.4
196.436	38.46
196.655	35.24
196.874	53.25
197.093	81.77
197.312	54.34
197.531	77.47
197.75	76.03
197.969	83.01
198.188	89.37
198.407	86.81
198.625	105
198.844	91.21
199.063	83.09
199.282	99.99
199.501	91.94
199.719	119.07
199.938	104.83
200.157	88.06
200.376	98.63
200.594	109.07
200.813	129.66
201.032	91.12
201.251	86.41
201.469	103.75
201.688	80.26
201.907	89.26
202.125	97.45
202.344	135.2
202.563	147.38
202.781	121.48
203	103.16
203.218	49.03
203.437	97.63
203.656	128.03
203.874	84.91
204.093	94.67
204.311	93.85
204.53	52.79
204.748	27.71
204.967	48.51
205.185	54.14
205.404	38.93
205.622	38.16
205.841	44.89
206.059	19.53
206.278	25.61
206.496	12.11
206.715	5.63
206.933	31.61
207.151	42
207.37	25.31
207.588	29.03
207.806	40.26
208.025	55.14
208.243	38.27
208.461	41.74
208.68	38.28
208.898	68.27
209.116	66.85
209.335	78.42
209.553	74.58
209.771	82.23
209.989	71.11
210.208	70.4
210.426	62.66
210.644	70.32
210.862	64.98
211.081	66.82
211.299	61.67
211.517	68.92
211.735	56.24
211.953	70.29
212.171	75.91
212.39	71.98
212.608	85.97
212.826	95.84
213.044	98.55
213.262	98.82
213.48	102.84
213.698	86.38
213.916	90.52
214.134	85.21
214.352	88.87
214.57	75.89
214.788	88.5
215.006	74.98
215.224	69.97
215.442	63.78
215.66	74.63
215.878	73.51
216.096	103.73
216.314	67.92
216.532	87.07
216.75	68.82
216.968	82.45
217.185	92.92
217.403	129.72
217.621	188.8
217.839	146.44
218.057	162.04
218.275	125.52
218.492	144.37
218.71	210.29
218.928	189.69
219.146	280.54
219.363	184.5
219.581	207.27
219.799	213.17
220.017	172.44
220.234	161.74
220.452	203.82
220.67	256.24
220.887	335.82
221.105	414.58
221.323	6439.88
221.54	532.08
221.758	4185.36
221.976	1483.28
222.193	255.21
222.411	338.61
222.629	507.1
222.846	557.88
223.064	-463.51
223.281	523.88
223.499	293.3
223.716	448.74
223.934	-350.38
224.151	-79
224.369	-27.99
224.586	-6.4
224.804	22.1
225.021	-4.89
225.239	-12.59
225.456	3.45
225.674	-11.2
225.891	-35.35
226.108	-55.65
226.326	-52.52
226.543	1.43
226.76	-3.37
226.978	-3.16
227.195	-21.93
227.413	-8.96
227.63	7.9
227.847	-1.56
228.064	4.27
228.282	5.94
228.499	5.63
228.716	5.64
228.934	-1.01
229.151	-1.11
229.368	0.38
229.585	0.37
229.802	-0.71
230.02	-2.59
230.237	0.25
230.454	2.67
230.671	4.4
230.888	5.26
231.105	2.11
231.323	2.54
231.54	-3.17
231.757	-8.9
231.974	-9.93
232.191	-5.74
232.408	-11.39
232.625	-11.6
232.842	-18.45
233.059	-23.28
233.276	-26.76
233.493	-19.12
233.71	-10.34
233.927	-0.06
234.144	6.31
234.361	6.9
234.578	-1.55
234.795	5.69
235.012	0.05
235.229	-2.2
235.446	-3.28
235.663	1.25
235.879	-2.6
236.096	-7.2
236.313	-10.41
236.53	-16.35
236.747	-18.24
236.964	-15.35
237.181	-24.29
237.397	-22.73
237.614	-25.19
237.831	-20.52
238.048	-22.92
238.264	-26.04
238.481	-26.35
238.698	-16.23
238.915	-6.24
239.131	-0.66
239.348	1.61
239.565	2.05
239.781	2.7
239.998	-1.02
240.215	0.2
240.431	-1.3
240.648	6.52
240.865	11.83
241.081	10.15
241.298	7.17
241.514	6.14
241.731	6.98
241.947	8.31
242.164	8.24
242.38	13.57
242.597	12.53
242.814	13.27
243.03	11.58
243.246	10.86
243.463	10.52
243.679	11.06
243.896	12.09
244.112	12.28
244.329	13.26
244.545	13.27
244.762	11.86
244.978	13.56
245.194	12.82
245.411	11.49
245.627	12.2
245.843	12.46
246.06	12.54
246.276	12.63
246.492	12.34
246.709	11.4
246.925	12.1
247.141	11.62
247.357	11.45
247.574	12.21
247.79	12.69
248.006	12.57
248.222	12.64
248.439	13.15
248.655	12.21
248.871	11.89
249.087	12.61
249.303	11.14
249.519	9.63
249.736	9.04
249.952	8.93
250.168	9.79
250.384	8.97
250.6	9.88
250.816	6.72
251.032	8.27
251.248	8.04
251.464	4.06
251.68	5.65
251.896	7.64
252.112	6.7
252.328	4.44
252.544	0.36
252.76	-2.13
252.976	-5.97
253.192	-5.98
253.408	-5.79
253.624	-6.18
253.84	-3.33
254.056	-4.22
254.272	-6.08
254.487	-7.39
254.703	-3.85
254.919	-2.13
255.135	1.51
255.351	1.78
255.567	5.56
255.782	5.21
255.998	6.87
256.214	7.05
256.43	10.19
256.646	9.44
256.861	10.63
257.077	7.51
257.293	7.83
257.508	9.49
257.724	11.42
257.94	10.06
258.155	8.76
258.371	8.08
258.587	6.81
258.802	6
259.018	8.41
259.234	9.48
259.449	8.97
259.665	9.34
259.88	8.64
260.096	8.26
260.312	9.02
260.527	9.44
260.743	9.04
260.958	9.27
261.174	9.57
261.389	8.42
261.605	7.46
261.82	8.13
262.036	7.42
262.251	7.53
262.466	8.16
262.682	6.57
262.897	4.75
263.113	5.68
263.328	6.35
263.543	2.5
263.759	-0.35
263.974	-1.14
264.189	-1.7
264.405	-2.45
264.62	-3.47
264.835	-4.3
265.051	-3.03
265.266	-2.55
265.481	-2.24
265.696	-3.85
265.912	0.46
266.127	3.78
266.342	3.82
266.557	3.27
266.773	3.48
266.988	3.24
267.203	4.21
267.418	4.96
267.633	6.13
267.848	5.92
268.064	7.17
268.279	7.44
268.494	5.56
268.709	7.3
268.924	8.87
269.139	8.22
269.354	9.69
269.569	9.25
269.784	5.85
269.999	6.15
270.214	6.11
270.429	5.26
270.644	3.66
270.859	3.78
271.074	2.84
271.289	1.45
271.504	3.48
271.719	3.49
271.934	1.87
272.149	4.27
272.363	4.26
272.578	4.53
272.793	5
273.008	4.44
273.223	6.32
273.438	5.32
273.653	6.98
273.867	6.39
274.082	6.07
274.297	7.71
274.512	6.14
274.726	4.24
274.941	4.06
275.156	4.57
275.371	5.64
275.585	3.51
275.8	4.76
276.015	3.15
276.229	3.44
276.444	1.87
276.659	0.66
276.873	2.68
277.088	4.85
277.302	5.33
277.517	6.36
277.732	5.96
277.946	7.5
278.161	6.68
278.375	6.72
278.59	7.66
278.804	8.45
279.019	8.74
279.233	9.19
279.448	8.8
279.662	8.13
279.877	6.91
280.091	8.65
280.306	8.04
280.52	8.62
280.735	9.45
280.949	9.6
281.163	10.72
281.378	10
281.592	9.17
281.806	8.94
282.021	9.03
282.235	9.25
282.449	8.3
282.664	8.54
282.878	8.5
283.092	7.14
283.307	7.15
283.521	6.12
283.735	7.31
283.949	7.34
284.164	7.92
284.378	8.17
284.592	8.47
284.806	8.9
285.02	10.34
285.234	11.3
285.449	12.27
285.663	11.78
285.877	12.67
286.091	12.31
286.305	12.38
286.519	12.49
286.733	12.3
286.947	11.9
287.161	12.58
287.375	10.88
287.589	10.79
287.803	10.05
288.017	10.38
288.231	10.3
288.445	10.89
288.659	10.26
288.873	9.52
289.087	9.68
289.301	9.54
289.515	8.45
289.729	8.76
289.943	7.43
290.157	6.47
290.371	6
290.584	6.83
290.798	5.63
291.012	6.15
291.226	6.49
291.44	6.8
291.654	6.48
291.867	7.24
292.081	7.84
292.295	8.91
292.509	10.06
292.722	10.13
292.936	8.35
293.15	10.65
293.364	10.31
293.577	9.78
293.791	9.33
294.005	9.51
294.218	9.25
294.432	9.27
294.645	8.94
294.859	10.46
295.073	10.39
295.286	10.75
295.5	9.79
295.713	10.05
295.927	10.51
296.14	10.18
296.354	9.61
296.568	9.75
296.781	9.75
296.994	10
297.208	9.01
297.421	9.5
297.635	8.69
297.848	9.26
298.062	9.43
298.275	9.91
298.489	10.18
298.702	10.78
298.915	10.76
299.129	11.62
299.342	11.85
299.555	11.76
299.769	12.03
299.982	13.58
300.195	12.26
300.409	12.11
300.622	11.45
300.835	11.09
301.048	11.21
301.262	10.12
301.475	8.28
301.688	6.49
301.901	7
302.115	5.96
302.328	5.92
302.541	6.81
302.754	7.36
302.967	8.05
303.18	9.18
303.393	9.19
303.607	9.6
303.82	10.09
304.033	13.04
304.246	12.71
304.459	13.24
304.672	13.4
304.885	13.54
305.098	12.51
305.311	11.93
305.524	10.57
305.737	10.43
305.95	11.23
306.163	11.87
306.376	9.71
306.589	10.52
306.802	9.24
307.015	8.61
307.228	9.27
307.44	10.61
307.653	10.89
307.866	12.4
308.079	12.54
308.292	11.67
308.505	11.66
308.718	12.04
308.93	12.6
309.143	12.94
309.356	12.36
309.569	12.02
309.781	12.44
309.994	12.24
310.207	11.77
310.42	11.18
310.632	12.01
310.845	11.16
311.058	11.76
311.27	11.34
311.483	12.36
311.696	13.44
311.908	14.09
312.121	13.51
312.333	13.49
312.546	13.14
312.759	13.79
312.971	13.21
313.184	13.78
313.396	12.86
313.609	12.46
313.821	11.91
314.034	10.46
314.246	9.06
314.459	9.61
314.671	9.81
314.884	9.91
315.096	9.98
315.309	8.84
315.521	8.79
315.733	8.96
315.946	7.95
316.158	7.66
316.371	8.97
316.583	8.68
316.795	8.14
317.008	9.59
317.22	10.43
317.432	10.17
317.644	9.79
317.857	10.47
318.069	12.26
318.281	12.56
318.494	13.01
318.706	12.29
318.918	12.53
319.13	13.79
319.342	12.31
319.555	12.08
319.767	13.09
319.979	12.49
320.191	12.45
320.403	11.48
320.615	12.25
320.827	11.36
321.039	10.79
321.252	11.97
321.464	11.18
321.676	11.82
321.888	12.21
322.1	11.75
322.312	15.26
322.524	15.03
322.736	15.22
322.948	15.38
323.16	15.93
323.372	17.35
323.584	16.65
323.796	16.17
324.007	15.97
324.219	16.49
324.431	16.02
324.643	14.8
324.855	15.6
325.067	15.82
325.279	15.49
325.491	17.7
325.702	17.29
325.914	17.62
326.126	18.54
326.338	19.4
326.55	19.32
326.761	21.11
326.973	22.11
327.185	22.78
327.396	23.18
327.608	24.09
327.82	22.25
328.032	23.45
328.243	23.84
328.455	24.57
328.666	24.78
328.878	25.93
329.09	26.2
329.301	26.81
329.513	26.25
329.725	26.58
329.936	26.33
330.148	27.05
330.359	27.31
330.571	27.79
330.782	27.74
330.994	28.09
331.205	28.38
331.417	27.14
331.628	27.88
331.84	28.1
332.051	28.45
332.262	29.86
332.474	30.5
332.685	30.27
332.897	30.59
333.108	31.18
333.319	31.51
333.531	31.01
333.742	32.89
333.953	32.79
334.165	32.7
334.376	33.23
334.587	33.96
334.799	35.04
335.01	35.79
335.221	36.44
335.432	36.87
335.644	38.19
335.855	38.72
336.066	38.23
336.277	37.87
336.488	37.97
336.7	37.44
336.911	36.37
337.122	35.73
337.333	35.25
337.544	34.67
337.755	33.55
337.966	32.51
338.177	32.85
338.388	32.92
338.599	33.29
338.811	34.36
339.022	35.07
339.233	35.04
339.444	34.76
339.655	34.87
339.866	35.75
340.076	36.6
340.287	36.19
340.498	36.83
340.709	36.72
340.92	36.85
341.131	36.02
341.342	34.6
341.553	34.88
341.764	35.34
341.975	35.33
342.185	35.61
342.396	35.25
342.607	35.35
342.818	34.31
343.029	33.88
343.239	34.26
343.45	34.45
343.661	35.56
343.872	36.07
344.082	35.83
344.293	35.6
344.504	35.24
344.714	35.68
344.925	35.74
345.136	36.01
345.346	35.47
345.557	35.25
345.768	35.65
345.978	35.08
346.189	35.22
346.399	35.57
346.61	35.24
346.821	34.64
347.031	34.04
347.242	33.41
347.452	32.68
347.663	33.41
347.873	32.29
348.084	31.79
348.294	31.72
348.504	30.59
348.715	29.8
348.925	30.46
349.136	30.92
349.346	31.04
349.557	31.55
349.767	31.72
349.977	32.13
350.188	31.57
350.398	31.84
350.608	32.36
350.819	32.44
351.029	32.89
351.239	32.12
351.449	31.88
351.66	31.92
351.87	31.8
352.08	31.26
352.29	30.94
352.501	32.84
352.711	32.86
352.921	32.06
353.131	32.1
353.341	32.07
353.552	32.52
353.762	32.41
353.972	32.57
354.182	31.96
354.392	31.95
354.602	31.55
354.812	31.32
355.022	30.93
355.232	31.94
355.442	32.56
355.652	32.39
355.862	32.65
356.072	32.06
356.282	31.58
356.492	32.26
356.702	32.83
356.912	32.91
357.122	32.47
357.332	32.33
357.542	31.21
357.752	30.35
357.962	30.14
358.171	29.78
358.381	30.16
358.591	30.12
358.801	29.85
359.011	29.55
359.221	29.27
359.43	29.01
359.64	28.47
359.85	28.69
360.06	29
360.269	28.88
360.479	29.07
360.689	29.29
360.899	29.18
361.108	29.49
361.318	29.55
361.528	29.6
361.737	29.78
361.947	30.39
362.156	30.12
362.366	30.12
362.576	29.99
362.785	29.91
362.995	29.9
363.204	30.19
363.414	29.79
363.623	29.95
363.833	29.79
364.042	29.65
364.252	29.67
364.461	30.39
364.671	30.34
364.88	30
365.09	29.87
365.299	29.52
365.509	29.29
365.718	29.33
365.927	28.44
366.137	28.87
366.346	28.63
366.555	28.32
366.765	27.5
366.974	27.45
367.183	27.39
367.393	27.64
367.602	27.8
367.811	27.72
368.021	27.31
368.23	27.55
368.439	27.09
368.648	27.32
368.857	27.09
369.067	27.13
369.276	26.95
369.485	27.36
369.694	27.24
369.903	26.54
370.112	26.32
370.321	27.07
370.531	27.12
370.74	27.03
370.949	26.91
371.158	26.52
371.367	26.64
371.576	26.46
371.785	26.42
371.994	26.08
372.203	27.22
372.412	27.27
372.621	26.74
372.83	26.6
373.039	26.81
373.248	26.6
373.457	26.67
373.666	26.84
373.874	26.44
374.083	26.1
374.292	25.16
374.501	24.27
374.71	23.6
374.919	23.67
375.128	24.18
375.336	23.97
375.545	24.13
375.754	24.21
375.963	23.88
376.171	24.2
376.38	24.15
376.589	24.5
376.798	24.35
377.006	24.58
377.215	24.29
377.424	23.68
377.632	23.46
377.841	23.24
378.05	22.85
378.258	22.84
378.467	22.6
378.675	22.69
378.884	22.33
379.093	21.88
379.301	21.97
379.51	22.04
379.718	21.8
379.927	21.62
380.135	21.72
380.344	21.85
380.552	21.39
380.761	21.63
380.969	21.56
381.177	22.16
381.386	22.32
381.594	22.65
381.803	22.13
382.011	21.88
382.219	22.07
382.428	21.87
382.636	21.91
382.845	22.07
383.053	22.14
383.261	21.74
383.469	21.38
383.678	21.63
383.886	20.96
384.094	21.21
384.302	21.3
384.511	21.37
384.719	21.41
384.927	21.07
385.135	20.96
385.343	20.26
385.552	20.49
385.76	20.24
385.968	19.86
386.176	19.47
386.384	19.54
386.592	19.57
386.8	18.65
387.008	18.5
387.216	18.76
387.424	18.59
387.633	18.56
387.841	18.08
388.049	18.49
388.257	18.12
388.465	18.37
388.672	17.69
388.88	17.49
389.088	17.71
389.296	17.45
389.504	17.1
389.712	16.92
389.92	17.11
390.128	17.61
390.336	17.36
390.544	17.47
390.751	17.21
390.959	17.34
391.167	17.42
391.375	17.7
391.583	17.39
391.79	17.44
391.998	17.79
392.206	17.79
392.414	17.51
392.621	17.2
392.829	17.09
393.037	17.1
393.244	17.22
393.452	16.96
393.66	16.78
393.867	16.88
394.075	16.95
394.283	16.68
394.49	16.63
394.698	16.71
394.905	16.64
395.113	16.91
395.32	16.72
395.528	16.53
395.735	16.63
395.943	16.4
396.15	16.42
396.358	16.17
396.565	16.47
396.773	16.36
396.98	15.81
397.188	16.17
397.395	15.87
397.602	16.34
397.81	16.47
398.017	16.35
398.225	16.6
398.432	16.72
398.639	16.78
398.847	16.48
399.054	16.47
399.261	16.63
399.468	16.52
399.676	16.36
399.883	16.11
400.09	16.1
400.297	16.13
400.505	16.13
400.712	15.83
400.919	15.69
401.126	15.58
401.333	15.67
401.54	15.82
401.748	15.66
401.955	15.64
402.162	15.93
402.369	15.66
402.576	15.49
402.783	15.27
402.99	15.34
403.197	15.39
403.404	15.4
403.611	15.06
403.818	14.95
404.025	14.82
404.232	14.88
404.439	14.77
404.646	14.93
404.853	15.03
405.06	14.87
405.267	14.96
405.474	14.87
405.681	14.8
405.887	14.95
406.094	14.73
406.301	14.85
406.508	14.77
406.715	14.47
406.922	14.19
407.128	14.34
407.335	14.56
407.542	14.71
407.749	14.54
407.955	14.38
408.162	14.4
408.369	14.56
408.575	14.31
408.782	14.42
408.989	14.49
409.195	14.65
409.402	14.38
409.609	14.17
409.815	14
410.022	14.19
410.228	14.35
410.435	14.31
410.642	14.51
410.848	14.58
411.055	14.5
411.261	14.54
411.468	14.41
411.674	14.73
411.881	14.79
412.087	14.46
412.294	14.61
412.5	14.75
412.706	14.93
412.913	14.79
413.119	14.96
413.326	15.13
413.532	15.38
413.738	15.57
413.945	15.31
414.151	15.42
414.357	15.62
414.564	15.69
414.77	15.26
414.976	15.17
415.182	15.04
415.389	15
415.595	14.88
415.801	14.5
416.007	14.47
416.214	14.37
416.42	14.57
416.626	14.7
416.832	14.6
417.038	14.85
417.244	14.86
417.45	14.85
417.657	14.63
417.863	14.62
418.069	14.49
418.275	14.16
418.481	14.38
418.687	14.12
418.893	14.12
419.099	13.94
419.305	13.85
419.511	13.67
419.717	13.62
419.923	13.73
420.129	13.64
420.335	13.75
420.541	14.04
420.746	13.91
420.952	13.91
421.158	13.94
421.364	14.01
421.57	14.01
421.776	14.06
421.982	14.1
422.187	14.08
422.393	14.13
422.599	14.19
422.805	14.04
423.01	14.11
423.216	14.17
423.422	13.96
423.628	13.99
423.833	13.95
424.039	14.02
424.245	14.04
424.45	14.02
424.656	14.02
424.862	13.96
425.067	13.92
425.273	13.78
425.478	13.73
425.684	13.79
425.889	13.65
426.095	13.77
426.301	13.57
426.506	13.57
426.712	13.54
426.917	13.64
427.123	13.71
427.328	14.05
427.533	14.21
427.739	14.33
427.944	14.47
428.15	14.55
428.355	14.34
428.561	14.39
428.766	14.38
428.971	14.47
429.177	14.38
429.382	14.33
429.587	14
429.793	13.87
429.998	13.77
430.203	13.47
430.408	13.63
430.614	13.47
430.819	13.47
431.024	13.56
431.229	13.5
431.434	13.26
431.64	13.28
431.845	13.23
432.05	13.27
432.255	13.32
432.46	13.5
432.665	13.45
432.87	13.75
433.076	13.73
433.281	13.5
433.486	13.42
433.691	13.44
433.896	13.31
434.101	13.37
434.306	13.21
434.511	13.02
434.716	12.94
434.921	12.84
435.126	12.74
435.331	12.95
435.535	13.11
435.74	13.11
435.945	13.26
436.15	13.24
436.355	13.12
436.56	13.35
436.765	13.54
436.97	13.63
437.174	13.74
437.379	13.71
437.584	13.38
437.789	13.33
437.993	13.41
438.198	13.47
438.403	13.49
438.608	13.51
438.812	13.52
439.017	13.39
439.222	13.48
439.426	13.39
439.631	13.44
439.836	13.53
440.04	13.59
440.245	13.6
440.45	13.46
440.654	13.52
440.859	13.48
441.063	13.36
441.268	13.33
441.472	13.14
441.677	13.21
441.881	13.23
442.086	13.35
442.29	13.26
442.495	13.23
442.699	13.3
442.904	13.19
443.108	13.34
443.312	13.49
443.517	13.52
443.721	13.55
443.925	13.48
444.13	13.51
444.334	13.32
444.538	13.18
444.743	13.13
444.947	13.13
445.151	13.19
445.356	13.24
445.56	13.16
445.764	13.25
445.968	13.25
446.173	13.29
446.377	13.11
446.581	13.22
446.785	13.29
446.989	13.3
447.193	13.32
447.398	13.34
447.602	13.29
447.806	13.26
448.01	13.24
448.214	13.28
448.418	12.99
448.622	12.94
448.826	12.74
449.03	12.88
449.234	12.95
449.438	12.87
449.642	12.77
449.846	12.61
450.05	12.42
450.254	12.34
450.458	12.19
450.662	12.43
450.866	12.74
451.069	12.92
451.273	12.8
451.477	12.94
451.681	12.74
451.885	12.94
452.089	13.06
452.292	13.43
452.496	13.46
452.7	13.46
452.904	13.41
453.107	13.21
453.311	13.3
453.515	13.2
453.719	13.03
453.922	13.04
454.126	12.79
454.33	12.71
454.533	12.53
454.737	12.41
454.94	12.5
455.144	12.62
455.348	12.67
455.551	12.31
455.755	12.31
455.958	12.43
456.162	12.5
456.365	12.62
456.569	12.66
456.772	12.7
456.976	12.91
457.179	12.73
457.383	12.71
457.586	12.89
457.79	13.11
457.993	13.15
458.196	13
458.4	13.09
458.603	13.06
458.807	13.12
459.01	12.96
459.213	12.87
459.417	13.02
459.62	12.98
459.823	12.85
460.026	12.77
460.23	12.76
460.433	12.82
460.636	12.87
460.839	12.86
461.042	12.76
461.246	12.88
461.449	12.92
461.652	12.91
461.855	13
462.058	12.97
462.261	13.09
462.464	13.11
462.668	12.94
462.871	12.91
463.074	12.98
463.277	13.07
463.48	12.84
463.683	12.75
463.886	12.75
464.089	12.56
464.292	12.59
464.495	12.68
464.698	12.66
464.901	12.77
465.104	12.73
465.306	12.62
465.509	12.51
465.712	12.72
465.915	12.76
466.118	12.59
466.321	12.57
466.524	12.66
466.726	12.41
466.929	12.26
467.132	12.31
467.335	12.29
467.538	12.47
467.74	12.43
467.943	12.38
468.146	12.45
468.348	12.6
468.551	12.69
468.754	12.72
468.956	12.78
469.159	12.86
469.362	12.71
469.564	12.74
469.767	12.72
469.969	12.92
470.172	13.01
470.375	12.95
470.577	12.91
470.78	12.79
470.982	12.81
471.185	13
471.387	13.22
471.59	13.4
471.792	13.25
471.995	13.2
472.197	13.15
472.399	12.87
472.602	12.8
472.804	12.62
473.007	12.69
473.209	12.55
473.411	12.31
473.614	12.12
473.816	12.05
474.018	12.26
474.22	12.25
474.423	12.21
474.625	12.37
474.827	12.32
475.03	12.47
475.232	12.64
475.434	12.87
475.636	13.05
475.838	13.07
476.04	13.08
476.243	13.05
476.445	13.03
476.647	12.89
476.849	12.93
477.051	13.17
477.253	13.17
477.455	12.99
477.657	12.83
477.859	12.8
478.061	12.73
478.263	12.65
478.465	12.52
478.667	12.46
478.869	12.61
479.071	12.49
479.273	12.43
479.475	12.45
479.677	12.39
479.879	12.34
480.081	12.39
480.283	12.37
480.485	12.43
480.686	12.57
480.888	12.55
481.09	12.59
481.292	12.76
481.494	12.73
481.695	12.77
481.897	12.88
482.099	12.84
482.301	12.8
482.502	12.87
482.704	12.96
482.906	13
483.107	13.03
483.309	12.99
483.511	12.96
483.712	12.95
483.914	12.91
484.115	12.92
484.317	13
484.519	13.01
484.72	12.96
484.922	12.83
485.123	12.79
485.325	12.79
485.526	12.78
485.728	12.77
485.929	12.72
486.131	12.69
486.332	12.64
486.534	12.57
486.735	12.59
486.936	12.69
487.138	12.79
487.339	12.74
487.541	12.79
487.742	12.77
487.943	12.78
488.144	12.83
488.346	12.88
488.547	12.91
488.748	12.84
488.95	12.86
489.151	12.75
489.352	12.68
489.553	12.77
489.755	12.72
489.956	12.77
490.157	12.72
490.358	12.73
490.559	12.78
490.76	12.75
490.961	12.81
491.163	12.85
491.364	12.88
491.565	12.93
491.766	12.9
491.967	12.84
492.168	12.87
492.369	12.91
492.57	12.88
492.771	12.83
492.972	12.86
493.173	12.8
493.374	12.73
493.575	12.71
493.776	12.73
493.976	12.68
494.177	12.62
494.378	12.53
494.579	12.6
494.78	12.79
494.981	12.93
495.182	13.03
495.382	13.1
495.583	13.03
495.784	13.07
495.985	12.97
496.185	12.99
496.386	13.03
496.587	13.1
496.788	12.87
496.988	12.75
497.189	12.62
497.39	12.58
497.59	12.65
497.791	12.7
497.992	12.81
498.192	12.74
498.393	12.87
498.593	12.97
498.794	12.81
498.994	13
499.195	12.94
499.395	13
499.596	13.13
499.796	13.07
499.997	13.12
500.197	12.95
500.398	13.07
500.598	12.97
500.799	12.95
500.999	13.07
501.199	13
501.4	13.1
501.6	13.03
501.801	12.98
502.001	13.16
502.201	13.15
502.402	13.27
502.602	13.39
502.802	13.42
503.002	13.46
503.203	13.38
503.403	13.37
503.603	13.28
503.803	13.36
504.003	13.33
504.204	13.14
504.404	12.98
504.604	13.11
504.804	13.01
505.004	13
505.204	12.94
505.404	13.13
505.604	13.23
505.804	13.4
506.005	13.32
506.205	13.31
506.405	13.31
506.605	13.49
506.805	13.45
507.005	13.41
507.204	13.54
507.404	13.62
507.604	13.54
507.804	13.54
508.004	13.4
508.204	13.53
508.404	13.51
508.604	13.74
508.804	13.77
509.003	13.9
509.203	14.08
509.403	14.09
509.603	14.09
509.803	14.22
510.002	14.25
510.202	14.4
510.402	14.4
510.602	14.37
510.801	14.38
511.001	14.33
511.201	14.33
511.4	14.29
511.6	14.22
511.8	14.29
511.999	14.21
512.199	14.21
512.398	14.16
512.598	14.23
512.797	14.32
512.997	14.31
513.197	14.48
513.396	14.44
513.596	14.61
513.795	14.79
513.994	14.7
514.194	14.93
514.393	15.18
514.593	15.24
514.792	15.45
514.992	15.59
515.191	15.54
515.39	15.55
515.59	15.54
515.789	15.6
515.988	15.68
516.188	16.01
516.387	16.08
516.586	16.01
516.786	16
516.985	15.91
517.184	16.04
517.383	16.08
517.582	16.14
517.782	16.36
517.981	16.22
518.18	16.22
518.379	16.2
518.578	16.08
518.777	16.12
518.976	16.31
519.176	16.32
519.375	16.22
519.574	16.37
519.773	16.33
519.972	16.35
520.171	16.54
520.37	16.62
520.569	16.75
520.768	16.92
520.967	17.01
521.166	16.99
521.365	17.21
521.564	17.39
521.762	17.47
521.961	17.7
522.16	17.78
522.359	17.96
522.558	18.11
522.757	18.09
522.956	18.22
523.154	18.44
523.353	18.58
523.552	18.58
523.751	18.76
523.949	18.89
524.148	18.95
524.347	18.95
524.546	18.94
524.744	19.01
524.943	19.04
525.142	18.96
525.34	18.9
525.539	18.88
525.737	18.98
525.936	19.01
526.135	19.11
526.333	19.26
526.532	19.43
526.73	19.57
526.929	19.55
527.127	19.71
527.326	19.9
527.524	20.03
527.723	20.27
527.921	20.35
528.12	20.53
528.318	20.57
528.516	20.62
528.715	20.72
528.913	20.8
529.112	20.9
529.31	21
529.508	21.08
529.707	21.2
529.905	21.23
530.103	21.32
530.301	21.3
530.5	21.36
530.698	21.42
530.896	21.48
531.094	21.55
531.293	21.59
531.491	21.58
531.689	21.61
531.887	21.69
532.085	21.85
532.283	21.95
532.481	22.08
532.68	22.23
532.878	22.43
533.076	22.51
533.274	22.58
533.472	22.64
533.67	22.83
533.868	22.94
534.066	22.97
534.264	22.95
534.462	23.08
534.66	23.08
534.858	23.17
535.056	23.13
535.253	23.07
535.451	23.19
535.649	23.42
535.847	23.48
536.045	23.65
536.243	23.78
536.441	23.92
536.638	24.01
536.836	24.24
537.034	24.33
537.232	24.41
537.43	24.63
537.627	24.68
537.825	24.76
538.023	24.75
538.22	24.86
538.418	24.85
538.616	25.03
538.813	25.01
539.011	25.01
539.209	25.21
539.406	25.4
539.604	25.59
539.801	25.65
539.999	25.77
540.196	25.93
540.394	26.09
540.591	26.25
540.789	26.18
540.986	26.33
541.184	26.46
541.381	26.42
541.579	26.37
541.776	26.38
541.974	26.51
542.171	26.49
542.368	26.6
542.566	26.57
542.763	26.66
542.96	26.7
543.158	26.76
543.355	26.87
543.552	26.94
543.75	27.14
543.947	27.24
544.144	27.19
544.341	27.33
544.539	27.35
544.736	27.46
544.933	27.54
545.13	27.7
545.327	27.69
545.524	27.54
545.722	27.68
545.919	27.73
546.116	27.82
546.313	27.94
546.51	28.02
546.707	28.06
546.904	27.93
547.101	27.83
547.298	27.9
547.495	27.93
547.692	28.08
547.889	28.15
548.086	28.2
548.283	28.24
548.48	28.29
548.677	28.33
548.874	28.37
549.07	28.59
549.267	28.83
549.464	28.87
549.661	29.02
549.858	29.17
550.055	29.17
550.251	29.16
550.448	29.11
550.645	29.16
550.842	29.25
551.038	29.22
551.235	29.18
551.432	29.11
551.628	29.18
551.825	29.12
552.022	28.96
552.218	29.12
552.415	29.18
552.612	29.22
552.808	29.26
553.005	29.12
553.201	29.23
553.398	29.43
553.594	29.46
553.791	29.64
553.987	29.79
554.184	29.94
554.38	30.07
554.577	30.24
554.773	30.43
554.97	30.56
555.166	30.79
555.362	30.99
555.559	30.99
555.755	31.25
555.952	31.14
556.148	31.02
556.344	31.03
556.541	30.96
556.737	30.64
556.933	30.62
557.129	30.57
557.326	30.58
557.522	30.6
557.718	30.66
557.914	30.64
558.11	30.85
558.307	31.07
558.503	31.19
558.699	31.25
558.895	31.54
559.091	31.64
559.287	31.71
559.483	31.67
559.679	31.66
559.876	31.84
560.072	31.66
560.268	31.58
560.464	31.87
560.66	31.85
560.856	31.75
561.052	31.91
561.247	31.93
561.443	31.96
561.639	32.05
561.835	32.05
562.031	32.18
562.227	32.37
562.423	32.44
562.619	32.28
562.815	32.37
563.01	32.49
563.206	32.39
563.402	32.39
563.598	32.38
563.793	32.3
563.989	32.34
564.185	32.05
564.381	32.2
564.576	32.24
564.772	32.21
564.968	32.09
565.163	32.14
565.359	32.24
565.555	32.17
565.75	32.24
565.946	32.39
566.141	32.61
566.337	32.77
566.532	32.6
566.728	32.72
566.923	32.7
567.119	32.81
567.314	32.82
567.51	32.8
567.705	32.76
567.901	32.8
568.096	32.97
568.292	32.75
568.487	32.88
568.682	33.04
568.878	32.97
569.073	33.14
569.268	33.13
569.464	33.11
569.659	33.09
569.854	33.34
570.05	33.56
570.245	33.38
570.44	33.42
570.635	33.13
570.831	32.9
571.026	32.64
571.221	32.58
571.416	32.66
571.611	32.72
571.806	32.92
572.002	32.9
572.197	32.99
572.392	33.09
572.587	32.92
572.782	33.09
572.977	33.4
573.172	33.53
573.367	33.45
573.562	33.39
573.757	33.34
573.952	33.14
574.147	32.97
574.342	32.79
574.537	32.72
574.732	33.04
574.927	32.95
575.121	32.6
575.316	32.76
575.511	33.09
575.706	33.27
575.901	33.33
576.096	33.33
576.29	33.64
576.485	33.57
576.68	33.78
576.875	33.81
577.069	33.86
577.264	34.25
577.459	34.09
577.654	33.96
577.848	33.89
578.043	34.14
578.238	34.45
578.432	34.33
578.627	34.34
578.821	34.23
579.016	34
579.21	33.96
579.405	33.82
579.6	33.92
579.794	33.69
579.989	33.67
580.183	33.21
580.378	33.09
580.572	32.9
580.766	33.05
580.961	32.72
581.155	32.69
581.35	32.7
581.544	32.78
581.738	32.88
581.933	33.01
582.127	33.13
582.321	33.56
582.516	33.32
582.71	33.44
582.904	33.31
583.099	33.63
583.293	34.12
583.487	34.3
583.681	34.06
583.875	33.91
584.07	34.04
584.264	34.06
584.458	34.07
584.652	34.44
584.846	34.66
585.04	34.58
585.234	34.5
585.428	34.14
585.623	34.32
585.817	34.61
586.011	34.8
586.205	34.77
586.399	34.7
586.593	34.52
586.787	34.56
586.981	34.74
587.174	34.91
587.368	35.09
587.562	35.01
587.756	34.8
587.95	34.68
588.144	34.89
588.338	34.97
588.532	34.95
588.725	35.18
588.919	35.06
589.113	34.75
589.307	34.77
589.501	34.87
589.694	34.94
589.888	35.16
590.082	35.3
590.275	35.18
590.469	34.81
590.663	34.91
590.856	35
591.05	35.02
591.244	35.24
591.437	35.37
591.631	35.02
591.824	35.35
592.018	35.19
592.212	35.06
592.405	35.19
592.599	35.48
592.792	35.32
592.986	35.05
593.179	35.15
593.372	35.01
593.566	35.28
593.759	35.44
593.953	35.24
594.146	35.13
594.339	35.27
594.533	35.4
594.726	35.41
594.92	35.43
595.113	35.4
595.306	35.26
595.499	35.23
595.693	34.97
595.886	34.92
596.079	34.93
596.272	35.1
596.466	34.85
596.659	34.76
596.852	34.92
597.045	35.21
597.238	35.32
597.431	35.38
597.624	35.51
597.818	35.58
598.011	35.77
598.204	35.84
598.397	35.93
598.59	36.16
598.783	36.12
598.976	36.17
599.169	36.18
599.362	36.02
599.555	35.96
599.748	36.12
599.941	35.98
600.134	35.98
600.326	35.97
600.519	35.66
600.712	35.67
600.905	35.5
601.098	35.17
601.291	34.67
601.483	34.9
601.676	34.86
601.869	34.67
602.062	34.87
602.255	34.76
602.447	34.85
602.64	35.09
602.833	35.35
603.025	35.37
603.218	35.67
603.411	36.15
603.603	36.2
603.796	36.21
603.989	36.14
604.181	36.25
604.374	36.37
604.566	36.29
604.759	36.15
604.951	36.1
605.144	36.28
605.336	36.18
605.529	36
605.721	35.92
605.914	35.96
606.106	36.11
606.299	35.76
606.491	35.74
606.683	35.9
606.876	36.13
607.068	35.96
607.26	35.93
607.453	36.15
607.645	36.19
607.837	36.24
608.03	36.5
608.222	36.49
608.414	36.74
608.606	36.87
608.799	36.76
608.991	36.78
609.183	37
609.375	37.11
609.567	37.21
609.759	37.23
609.952	37.2
610.144	37.27
610.336	37.52
610.528	37.5
610.72	37.46
610.912	37.53
611.104	37.64
611.296	37.51
611.488	37.28
611.68	36.99
611.872	37
612.064	37.14
612.256	37.02
612.448	36.88
612.64	36.95
612.832	36.69
613.023	36.66
613.215	36.46
613.407	36.43
613.599	36.46
613.791	36.46
613.983	36.42
614.174	36.52
614.366	36.34
614.558	36.16
614.75	36.22
614.941	36.44
615.133	36.32
615.325	36.47
615.516	36.8
615.708	37.06
615.9	37.24
616.091	37.19
616.283	37
616.475	37.43
616.666	37.52
616.858	37.28
617.049	37.2
617.241	37.08
617.432	36.97
617.624	36.6
617.815	36.31
618.007	36.29
618.198	36.32
618.39	36.01
618.581	35.73
618.773	35.45
618.964	35.57
619.155	35.84
619.347	36.13
619.538	36.23
619.729	36.66
619.921	37.04
620.112	36.8
620.303	36.72
620.494	37.08
620.686	37.24
620.877	37.37
621.068	37.32
621.259	37.16
621.451	36.96
621.642	36.62
621.833	36.51
622.024	36.42
622.215	36.72
622.406	37.04
622.597	37.2
622.788	37.16
622.98	37.25
623.171	37.38
623.362	37.44
623.553	37.7
623.744	37.97
623.935	37.81
624.126	37.66
624.317	37.38
624.508	37.61
624.698	37.45
624.889	37.39
625.08	37.15
625.271	37.31
625.462	37.14
625.653	37.51
625.844	37.33
626.034	37.59
626.225	37.72
626.416	37.69
626.607	37.53
626.798	37.36
626.988	37.26
627.179	37.55
627.37	37.67
627.56	37.92
627.751	37.46
627.942	37.67
628.132	37.46
628.323	37.46
628.514	37.7
628.704	37.56
628.895	37.69
629.085	37.83
629.276	37.74
629.466	37.56
629.657	37.46
629.847	37.57
630.038	37.35
630.228	37.46
630.419	37.34
630.609	37.29
630.8	37.26
630.99	37.57
631.181	37.67
631.371	37.57
631.561	37.61
631.752	37.45
631.942	37.47
632.132	37.53
632.323	37.53
632.513	37.72
632.703	37.57
632.893	37.73
633.084	37.52
633.274	37.07
633.464	37.2
633.654	37.15
633.844	37.31
634.034	37.38
634.225	37.6
634.415	37.61
634.605	37.5
634.795	37.6
634.985	37.77
635.175	37.84
635.365	38.04
635.555	37.96
635.745	37.78
635.935	37.57
636.125	37.44
636.315	37.55
636.505	37.38
636.695	37.35
636.885	37.63
637.075	37.44
637.265	37.43
637.455	37.35
637.644	37.71
637.834	37.53
638.024	37.94
638.214	38.15
638.404	37.98
638.593	37.86
638.783	37.7
638.973	37.78
639.163	37.77
639.352	37.43
639.542	37.45
639.732	37.34
639.921	37.44
640.111	37.22
640.301	37.12
640.49	36.92
640.68	37.14
640.87	37.41
641.059	37.22
641.249	37.41
641.438	37.63
641.628	37.85
641.817	37.92
642.007	38.04
642.196	38.15
642.386	38.22
642.575	38.15
642.764	37.92
642.954	37.85
643.143	37.55
643.333	37.67
643.522	37.6
643.711	37.6
643.901	37.7
644.09	37.83
644.279	37.77
644.469	38.08
644.658	38.46
644.847	38.6
645.036	38.41
645.226	38.6
645.415	38.36
645.604	38.45
645.793	38.41
645.982	37.8
646.171	37.68
646.361	37.47
646.55	37.03
646.739	36.73
646.928	36.83
647.117	37.31
647.306	37.16
647.495	36.94
647.684	36.87
647.873	36.6
648.062	36.92
648.251	37.08
648.44	37.26
648.629	37.53
648.818	38.07
649.007	38.08
649.196	37.75
649.384	37.7
649.573	38.26
649.762	38.59
649.951	39.36
650.14	39.12
650.328	38.9
650.517	39.02
650.706	38.73
650.895	37.93
651.083	37.91
651.272	37.81
651.461	38.09
651.65	37.57
651.838	37.63
652.027	37.17
652.216	37.52
652.404	37.96
652.593	38.05
652.781	37.98
652.97	38.32
653.158	38.23
653.347	38.54
653.535	38.71
653.724	39.06
653.912	38.65
654.101	38.78
654.289	38.68
654.478	38.54
654.666	38.65
654.855	39.24
655.043	39.28
655.231	39.24
655.42	39.09
655.608	38.71
655.796	38.55
655.985	38.92
656.173	38.67
656.361	38.69
656.55	38.73
656.738	38.28
656.926	38.02
657.114	38.14
657.302	38.31
657.491	38.47
657.679	38.31
657.867	38.54
658.055	38.45
658.243	38.37
658.431	38.14
658.619	38.08
658.807	38.39
658.996	38.05
659.184	38.11
659.372	37.99
659.56	37.73
659.748	37.85
659.936	37.54
660.124	37.61
660.311	38.15
660.499	38.38
660.687	38.52
660.875	38.16
661.063	38.58
661.251	38.95
661.439	39.03
661.627	39.16
661.814	39.32
662.002	39.55
662.19	39.17
662.378	39.13
662.565	39.18
662.753	39.08
662.941	39.69
663.129	39.45
663.316	38.93
663.504	39.11
663.692	39.06
663.879	39.3
664.067	39.46
664.254	39.97
664.442	39.22
664.63	39.2
664.817	38.9
665.005	38.35
665.192	38.29
665.38	38.47
665.567	38.9
665.755	39.63
665.942	38.89
666.13	38.49
666.317	38.16
666.504	38.35
666.692	38.44
666.879	39.17
667.067	39.39
667.254	39.37
667.441	39.55
667.629	39.25
667.816	39.11
668.003	39.41
668.19	39.51
668.378	39.49
668.565	39.41
668.752	39.62
668.939	39.34
669.127	39.18
669.314	39.09
669.501	39.01
669.688	38.92
669.875	38.51
670.062	38.88
670.249	39.06
670.436	38.96
670.623	39.34
670.81	39.04
670.997	39.01
671.184	38.66
671.371	39.3
671.558	39.15
671.745	39.16
671.932	39.21
672.119	38.71
672.306	38.17
672.493	38.57
672.68	38.64
672.867	38.65
673.054	39.06
673.24	39.6
673.427	39.07
673.614	39.26
673.801	39.37
673.988	39.29
674.174	39.6
674.361	40.16
674.548	40.04
674.734	40.22
674.921	40.67
675.108	40.05
675.294	40.31
675.481	40.7
675.668	40.14
675.854	40.25
676.041	40.38
676.227	40.68
676.414	40.35
676.601	40.17
676.787	39.83
676.974	39.07
677.16	39.45
677.347	39.9
677.533	40.23
677.719	40.38
677.906	40.32
678.092	40.06
678.279	40.31
678.465	40.38
678.651	40.58
678.838	40.64
679.024	41.11
679.21	40.96
679.397	40.55
679.583	40.07
679.769	40.16
679.955	40.34
680.142	40.43
680.328	39.81
680.514	40.02
680.7	39.87
680.886	39.74
681.073	39.68
681.259	39.26
681.445	38.77
681.631	38.56
681.817	38.41
682.003	37.93
682.189	38.03
682.375	38.03
682.561	37.89
682.747	38.34
682.933	38.14
683.119	38
683.305	38.35
683.491	38.73
683.677	39.44
683.863	39.92
684.049	39.89
684.235	39.94
684.42	40.09
684.606	40.14
684.792	39.87
684.978	39.92
685.164	39.98
685.349	40.12
685.535	40.1
685.721	39.8
685.907	39.74
686.092	40.11
686.278	39.63
686.464	39.96
686.649	39.3
686.835	39.49
687.021	39.19
687.206	39.33
687.392	39.35
687.577	39.75
687.763	39.69
687.948	39.3
688.134	39.28
688.319	39.94
688.505	39.27
688.69	39.38
688.876	39.36
689.061	40.22
689.247	40.28
689.432	40.07
689.618	39.69
689.803	39.22
689.988	39.67
690.174	39.58
690.359	38.99
690.544	39.56
690.73	40.04
690.915	40.22
691.1	39.85
691.285	39.48
691.471	40.08
691.656	40.65
691.841	41.51
692.026	41.01
692.211	40.7
692.396	41.3
692.582	41.1
692.767	41.16
692.952	40.6
693.137	41.01
693.322	41.01
693.507	40.48
693.692	40.2
693.877	39.94
694.062	40.14
694.247	40.88
694.432	41.43
694.617	41.22
694.802	41.22
694.987	41.38
695.172	41.12
695.357	41.75
695.541	42.15
695.726	41.47
695.911	41.62
696.096	41.67
696.281	41.24
696.466	40.82
696.65	41.58
696.835	41.82
697.02	41.8
697.204	41.43
697.389	41
697.574	40.44
697.759	40.84
697.943	40.76
698.128	40.61
698.312	40.51
698.497	40.48
698.682	40.2
698.866	39.93
699.051	39.88
699.235	39.86
699.42	40.12
699.604	40.24
699.789	40.28
699.973	39.92
700.158	40.06
700.342	40.06
700.527	39.84
700.711	40.12
700.895	40.32
701.08	40.13
701.264	40.31
701.448	40.18
701.633	40.34
701.817	39.62
702.001	39.27
702.186	39.4
702.37	38.99
702.554	38.87
702.738	38.83
702.923	38.89
703.107	39.31
703.291	39.65
703.475	39.15
703.659	38.9
703.843	39.91
704.027	41.05
704.212	41.04
704.396	41.5
704.58	41.88
704.764	41.07
704.948	40.55
705.132	40.55
705.316	40.74
705.5	40.72
705.684	41.5
705.868	41.27
706.052	40.87
706.235	40.91
706.419	40.78
706.603	41.18
706.787	41.14
706.971	41.51
707.155	41.48
707.339	41.61
707.522	42.41
707.706	41.92
707.89	41.79
708.074	41.8
708.257	41.89
708.441	41.61
708.625	40.54
708.808	41.15
708.992	40.8
709.176	41.14
709.359	40.44
709.543	40.27
709.727	40.04
709.91	40.03
710.094	40.05
710.277	40.22
710.461	40.37
710.644	40.91
710.828	40.58
711.011	40.93
711.195	40.38
711.378	40.62
711.562	40.28
711.745	40.23
711.928	40.24
712.112	40.34
712.295	39.71
712.478	40.33
712.662	39.82
712.845	39.73
713.028	39.82
713.212	39.95
713.395	39.35
713.578	39.04
713.761	39.06
713.945	38.75
714.128	38.71
714.311	39.06
714.494	39.03
714.677	39.41
714.86	40.18
715.043	39.93
715.227	40.11
715.41	40.42
715.593	40.76
715.776	40.77
715.959	41.37
716.142	41.34
716.325	40.94
716.508	40.46
716.691	40.31
716.874	39.89
717.057	39.88
717.239	39.29
717.422	39.31
717.605	40.12
717.788	39.88
717.971	38.68
718.154	38.23
718.337	38.98
718.519	38.86
718.702	38.78
718.885	38.8
719.068	38.72
719.25	38.55
719.433	38.73
719.616	37.99
719.798	38.2
719.981	39.04
720.164	39.23
720.346	38.39
720.529	38.55
720.712	38.74
720.894	38.48
721.077	39.25
721.259	39.51
721.442	39.41
721.624	39.22
721.807	39.21
721.989	40.21
722.172	40.34
722.354	40.82
722.537	41.49
722.719	41.72
722.901	42.45
723.084	42.53
723.266	42.73
723.448	41.9
723.631	41.92
723.813	42.33
723.995	40.14
724.178	40.39
724.36	40.81
724.542	39.46
724.724	39.67
724.907	39.16
725.089	39.13
725.271	38.82
725.453	40.3
725.635	40.12
725.817	40.01
725.999	40.74
726.181	40.77
726.364	40.3
726.546	42.14
726.728	42.65
726.91	42.58
727.092	41.77
727.274	42.2
727.456	41.32
727.638	41.16
727.819	41.24
728.001	42.03
728.183	41.71
728.365	41.12
728.547	40.27
728.729	39.69
728.911	39.1
729.093	39.34
729.274	39.1
729.456	39.28
729.638	40.26
729.82	40.55
730.001	40.56
730.183	41.49
730.365	42.33
730.546	42.47
730.728	42.46
730.91	42.38
731.091	41.46
731.273	41.79
731.455	41.46
731.636	40.87
731.818	40.19
731.999	40.32
732.181	40.31
732.362	40.29
732.544	39.93
732.725	39.35
732.907	40.46
733.088	40.53
733.27	40.2
733.451	40.2
733.633	40.36
733.814	39.8
733.995	39.27
734.177	37.87
734.358	38.16
734.539	38.35
734.721	38.24
734.902	38.24
735.083	38.74
735.264	38.59
735.446	40.25
735.627	40.2
735.808	41.71
735.989	40.66
736.17	40.99
736.351	39.84
736.533	39.94
736.714	40.17
736.895	38.86
737.076	39.56
737.257	40.01
737.438	38.85
737.619	37.51
737.8	37.35
737.981	38.88
738.162	38.86
738.343	39.7
738.524	40.14
738.705	40.54
738.886	40.33
739.067	40.57
739.247	41.16
739.428	40.67
739.609	41.22
739.79	40.64
739.971	40.98
740.151	41.49
740.332	40.59
740.513	40.68
740.694	41.03
740.874	40.75
741.055	39.34
741.236	37.86
741.417	38
741.597	39.23
741.778	38.21
741.958	37.72
742.139	37.96
742.32	39.76
742.5	38.86
742.681	38.84
742.861	39.93
743.042	41.24
743.222	42.3
743.403	42.27
743.583	40.8
743.764	40.31
743.944	40.04
744.124	40.63
744.305	39.32
744.485	40.36
744.666	40.54
744.846	41.25
745.026	40.89
745.207	41.49
745.387	41.32
745.567	42.37
745.747	43.57
745.928	43.76
746.108	42.37
746.288	43.19
746.468	42.13
746.648	41.4
746.829	40.58
747.009	40.86
747.189	40.05
747.369	40.92
747.549	40.55
747.729	40.05
747.909	40.63
748.089	41
748.269	39.8
748.449	40.03
748.629	39.93
748.809	40.61
748.989	41.26
749.169	41.21
749.349	39.75
749.529	40.35
749.709	40.43
749.889	39.73
750.068	38.78
750.248	39.17
750.428	39.11
750.608	39.62
750.788	40.52
750.967	39.83
751.147	40.08
751.327	42.08
751.507	41.44
751.686	41.99
751.866	41.72
752.046	41.83
752.225	41.23
752.405	41.52
752.585	41.67
752.764	40.62
752.944	40.07
753.123	40.31
753.303	39.2
753.482	39
753.662	39.02
753.841	39.19
754.021	39.84
754.2	40.66
754.38	40.58
754.559	40.54
754.739	40.76
754.918	40.6
755.097	39.39
755.277	38.28
755.456	38.91
755.635	39.13
755.815	39.08
755.994	39.98
756.173	39.81
756.352	40.18
756.532	40.12
756.711	39.39
756.89	39.3
757.069	40.02
757.248	41.67
757.427	41.89
757.607	41.23
757.786	42.41
757.965	41.42
758.144	40.2
758.323	39
758.502	39.62
758.681	39.65
758.86	40.01
759.039	40.05
759.218	38.8
759.397	39.07
759.576	39.94
759.755	38.84
759.934	38.82
760.113	38.89
760.291	39.31
760.47	38.99
760.649	38.92
760.828	38.95
761.007	39.47
761.186	40.49
761.364	39.83
761.543	39.97
761.722	40.11
761.901	40.07
762.079	42.07
762.258	41.62
762.437	40.89
762.615	41.1
762.794	41.62
762.972	40.87
763.151	40.81
763.33	40.97
763.508	41.07
763.687	41.4
763.865	41.04
764.044	40.75
764.222	41
764.401	41.14
764.579	41.65
764.758	40.86
764.936	41.46
765.114	42.11
765.293	42.29
765.471	43.13
765.65	42.89
765.828	43.32
766.006	43.01
766.184	43.63
766.363	43.88
766.541	43.87
766.719	44.86
766.898	44.95
767.076	43.41
767.254	43.12
767.432	41.99
767.61	42.67
767.788	42.61
767.967	42.96
768.145	41.97
768.323	42.33
768.501	42.27
768.679	41.81
768.857	41.3
769.035	42.55
769.213	42.3
769.391	40.74
769.569	39.4
769.747	38.88
769.925	37.84
770.103	38.02
770.281	36.84
770.459	35.01
770.636	36.2
770.814	37.33
770.992	37.18
771.17	36.52
771.348	37.65
771.525	38.13
771.703	38.26
771.881	39.06
772.059	39.19
772.236	39.17
772.414	37.85
772.592	36.78
772.769	35.77
772.947	34.99
773.125	36.82
773.302	36.05
773.48	35.69
773.657	37.78
773.835	38.21
774.013	39.16
774.19	38.81
774.368	42.76
774.545	42.16
774.723	39.46
774.9	38.68
775.077	36.94
775.255	38.56
775.432	37.63
775.61	38.54
775.787	35.79
775.964	37.07
776.142	37.69
776.319	36.65
776.496	36.22
776.674	37.89
776.851	39.78
777.028	38.73
777.205	37.56
777.382	38.92
777.56	35.96
777.737	36.66
777.914	33.96
778.091	33.71
778.268	32.36
778.445	34.02
778.622	33.96
778.8	34.67
778.977	35.98
779.154	34.61
779.331	34.69
779.508	36.76
779.685	36.43
779.862	36.7
780.038	37.6
780.215	37.65
780.392	34.69
780.569	33.67
780.746	32.89
780.923	34.58
781.1	35
781.277	33.93
781.453	33.42
781.63	34.83
781.807	34.89
781.984	35.13
782.16	35.65
782.337	37.5
782.514	38.35
782.691	37.22
782.867	35.83
783.044	36.6
783.221	37.67
783.397	36.72
783.574	35.2
783.75	36.79
783.927	37.36
784.103	38.9
784.28	41.23
784.456	42.15
784.633	43.35
784.809	43.61
784.986	43.43
785.162	41.08
785.339	40.91
785.515	41.77
785.692	40.8
785.868	38.01
786.044	35.89
786.221	32.97
786.397	33.74
786.573	32.84
786.749	30.96
786.926	30.45
787.102	30.03
787.278	30.17
787.454	30.9
787.631	30.78
787.807	33.57
787.983	33.23
788.159	34.42
788.335	31.9
788.511	32.38
788.687	34.23
788.863	36.15
789.039	39.44
789.216	37.24
789.392	36.52
789.568	35.23
789.744	33.15
789.919	35.51
790.095	36.18
790.271	38.69
790.447	38.86
790.623	38.53
790.799	40.23
790.975	38.08
791.151	41.66
791.327	45.03
791.502	46.99
791.678	48.87
791.854	46.64
792.03	44.85
792.205	44.64
792.381	43.08
792.557	43.52
792.733	42.35
792.908	44.51
793.084	43.85
793.259	40.93
793.435	42.35
793.611	43.03
793.786	42.86
793.962	43.78
794.137	43.93
794.313	44.78
794.488	45.43
794.664	44.61
794.839	40.74
795.015	39.32
795.19	39.82
795.366	37.1
795.541	33.95
795.716	34.63
795.892	32.52
796.067	28.59
796.242	30.11
796.418	28.04
796.593	28.09
796.768	29.03
796.944	29.77
797.119	31.93
797.294	31.63
797.469	34.66
797.644	34.07
797.82	35.25
797.995	39.3
798.17	37.99
798.345	38.43
798.52	38.37
798.695	38.27
798.87	38.88
799.045	37.88
799.22	39.82
799.395	40.91
799.57	43.5
799.745	41.53
799.92	41.51
800.095	42.83
800.27	41.68
800.445	42.09
800.62	42.86
800.795	43.38
800.97	42.62
801.145	42.3
801.319	41.35
801.494	37.68
801.669	40.77
801.844	40.54
802.018	41.98
802.193	44.47
802.368	43.09
802.543	42.86
802.717	43.15
802.892	42.75
803.067	39.84
803.241	38.91
803.416	40.45
803.59	38.5
803.765	38.63
803.94	36.66
804.114	34.73
804.289	36.72
804.463	35.35
804.638	33.51
804.812	32.42
804.986	38.84
805.161	40.04
805.335	42.43
805.51	43.22
805.684	41.91
805.858	41.01
806.033	43.49
806.207	39.85
806.381	43.58
806.556	44.2
806.73	45.6
806.904	41.42
807.078	39.73
807.253	39.52
807.427	38.64
807.601	39.49
807.775	41.25
807.949	41.36
808.123	42.88
808.298	43.79
808.472	43.73
808.646	42.28
808.82	42.72
808.994	40.75
809.168	41.83
809.342	42.48
809.516	44.98
809.69	42.49
809.864	39.65
810.038	40.93
810.212	35.45
810.385	34.28
810.559	33.88
810.733	32.32
810.907	31.26
811.081	28.26
811.255	29.46
811.428	26.23
811.602	27.6
811.776	29.71
811.95	31.82
812.123	36.67
812.297	37.23
812.471	35.95
812.644	37.86
812.818	40.47
812.992	36.44
813.165	34.7
813.339	36.1
813.512	34.07
813.686	35.99
813.86	31.88
814.033	25.51
814.207	25.68
814.38	27.85
814.554	28.44
814.727	31.14
814.9	36.07
815.074	37.02
815.247	33.64
815.421	33.7
815.594	30.45
815.767	31.02
815.941	34.54
816.114	39.19
816.287	38.41
816.46	36.42
816.634	33.09
816.807	31.25
816.98	30.73
817.153	32.72
817.327	35.81
817.5	35.31
817.673	34.81
817.846	36.31
818.019	32.33
818.192	33.1
818.365	38.87
818.538	44.13
818.711	43.52
818.884	41.9
819.057	37.98
819.23	35.41
819.403	36.07
819.576	31.74
819.749	30.83
819.922	31.88
820.095	34.15
820.268	30.16
820.441	26.94
820.614	29.86
820.786	31.47
820.959	35.09
821.132	35.29
821.305	36.1
821.477	38.59
821.65	39.86
821.823	39.69
821.996	39.59
822.168	40.68
822.341	41.52
822.514	40.67
822.686	40.83
822.859	40.78
823.031	40.99
823.204	40.82
823.376	40.87
823.549	40.57
823.722	40.64
823.894	40.69
824.067	40.82
824.239	40.34
824.411	41.09
824.584	41
824.756	41.02
824.929	41.58
825.101	41.78
825.273	41.13
825.446	41.52
825.618	42.17
825.79	42.32
825.963	41.34
826.135	42.04
826.307	41.62
826.479	41.47
826.652	41.11
826.824	40.32
826.996	39.58
827.168	40.72
827.34	40.53
827.512	40.2
827.684	40.03
827.856	38.96
828.029	38.69
828.201	39.11
828.373	39.99
828.545	39.75
828.717	40.3
828.889	40.87
829.061	40.83
829.232	40.11
829.404	39.21
829.576	39.9
829.748	42.18
829.92	41.72
830.092	41
830.264	40.12
830.436	40.59
830.607	38.68
830.779	37.82
830.951	36.14
831.123	36.93
831.294	36.56
831.466	33.24
831.638	32.49
831.809	33.7
831.981	34.79
832.153	33.09
832.324	34.49
832.496	35.47
832.667	34.17
832.839	35.79
833.011	37.24
833.182	35.62
833.354	35.01
833.525	35.31
833.697	35.68
833.868	35.51
834.039	37.33
834.211	38.13
834.382	39.34
834.554	42.79
834.725	42.02
834.896	40.19
835.068	42.01
835.239	42.73
835.41	42.95
835.581	43.7
835.753	43.4
835.924	44.12
836.095	43.96
836.266	45.66
836.438	44.73
836.609	44.65
836.78	45.2
836.951	43.03
837.122	44.55
837.293	45.72
837.464	44.21
837.635	43.06
837.806	41.32
837.977	39.38
838.148	35.39
838.319	32.78
838.49	32
838.661	32.31
838.832	37.11
839.003	31.79
839.174	26.51
839.345	22.31
839.516	20.66
839.687	14.93
839.857	23.58
840.028	27.89
840.199	34.1
840.37	38.31
840.54	43.42
840.711	44.05
840.882	42.62
841.053	45.91
841.223	46.15
841.394	50.21
841.564	51.05
841.735	45.67
841.906	43.48
842.076	39.81
842.247	37.61
842.417	29.83
842.588	26.39
842.758	30.66
842.929	20.21
843.099	16.14
843.27	8.76
843.44	14.84
843.611	22.29
843.781	14.22
843.951	16.75
844.122	19.19
844.292	16.53
844.462	12.01
844.633	14.07
844.803	29.38
844.973	34.21
845.144	38.6
845.314	35.15
845.484	33.16
845.654	45.42
845.824	41.68
845.995	37.59
846.165	45.45
846.335	50.64
846.505	45.92
846.675	24.4
846.845	14.84
847.015	7.94
847.185	5.66
847.355	-12.96
847.525	-5.15
847.695	0.68
847.865	-19.33
848.035	-24.49
848.205	-28.95
848.375	-12.11
848.545	-5.07
848.715	1.62
848.884	6.94
849.054	-11.33
849.224	7.23
849.394	0.24
849.564	-7.26
849.733	30.74
849.903	7.61
850.073	0.34
850.243	-3.37
850.412	-7.49
850.582	-18.39
850.752	-28.92
850.921	6.06
851.091	-7.78
851.26	-12.13
851.43	-23.74
851.599	-43.41
851.769	-28.99
851.939	-18.07
852.108	-36.09
852.278	-13.73
852.447	-15.96
852.616	15.31
852.786	-3.86
852.955	18.81
853.125	3.59
853.294	19.95
853.463	-14.55
853.633	-5.84
853.802	-44.03
853.971	-44.16
854.141	-60.85
854.31	-72.99
854.479	-145.76
854.648	-161.1
854.818	-152.98
854.987	-92.85
855.156	-105.45
855.325	-19.06
855.494	-50.2
855.663	-31.18
855.832	-48.08
856.001	-9.36
856.171	11.64
856.34	21.78
856.509	9.67
856.678	-8.97
856.847	-8.72
857.016	1.5
857.185	-18.8
857.353	16.82
857.522	13.97
857.691	41.8
857.86	44.35
858.029	39.59
858.198	43.12
858.367	42.54
858.535	36.54
858.704	31.67
858.873	26.2
859.042	26.85
859.21	15.59
859.379	22.66
859.548	-4.81
859.717	-4.49
859.885	1.91
860.054	-3.5
860.222	-6.97
860.391	-0.04
860.56	5.27
860.728	7.87
860.897	13.44
861.065	9.31
861.234	5.93
861.402	8.28
861.571	4.2
861.739	1.86
861.908	12.13
862.076	16.57
862.244	20.57
862.413	19.82
862.581	-1.09
862.749	-47.23
862.918	-29.52
863.086	-17.08
863.254	11.23
863.423	-0.87
863.591	60.19
863.759	23.47
863.927	114.79
864.096	64.14
864.264	89.38
864.432	-17.53
864.6	802.26
864.768	286.62
864.936	151.48
865.104	126.05
865.272	115.1
865.44	117.37
865.608	87.95
865.776	77.57
865.944	66.4
866.112	52.79
866.28	52.21
866.448	24.58
866.616	17.57
866.784	17.75
866.952	-15.73
867.12	-8.38
867.288	16.07
867.455	9.56
867.623	32.87
867.791	39.38
867.959	28.18
868.127	49.77
868.294	53.07
868.462	34.49
868.63	25.47
868.797	29.68
868.965	-19
869.133	-39.18
869.3	-38.81
869.468	-55.2
869.636	-22.96
869.803	-34.73
869.971	-58.46
870.138	-48.43
870.306	-36.06
870.473	-29.43
870.641	-16.42
870.808	-11.75
870.975	-44.11
871.143	-17.84
871.31	-54.01
871.478	-161.46
871.645	-44.59
871.812	-59.47
871.98	-82.62
872.147	-114.88
872.314	-83.57
872.482	-63.45
872.649	-50.27
872.816	25.33
872.983	-48
873.15	28.77
873.318	29.37
873.485	65.16
873.652	144.21
873.819	86.96
873.986	60.67
874.153	87.64
874.32	55.1
874.487	25.65
874.654	13.65
874.821	26.72
874.988	22.01
875.155	29.13
875.322	34.11
875.489	31.31
875.656	30.06
875.823	29.49
875.99	5.93
876.157	34.87
876.324	47.99
876.49	48.33
876.657	38.88
876.824	34.18
876.991	41.31
877.157	36.62
877.324	33.73
877.491	30.75
877.658	30.11
877.824	31.34
877.991	17.92
878.157	13.8
878.324	28.32
878.491	34.92
878.657	25.79
878.824	6.55
878.99	9.45
879.157	-3.92
879.323	28.14
879.49	24.19
879.656	33.88
879.823	41.64
879.989	52.45
880.156	36.63
880.322	28.84
880.488	46.8
880.655	56.73
880.821	38.78
880.987	48.32
881.154	44.1
881.32	36.94
881.486	33.21
881.652	29.75
881.819	29.55
881.985	30.69
882.151	32.4
882.317	29.96
882.483	32.32
882.649	35.83
882.816	34.55
882.982	34.81
883.148	36.33
883.314	36.9
883.48	35.59
883.646	36.33
883.812	36.95
883.978	37.05
884.144	37.03
884.31	38.04
884.476	38.14
884.642	37.93
884.807	39.53
884.973	39.47
885.139	40.66
885.305	42.54
885.471	40.88
885.637	40.91
885.802	41.84
885.968	41.37
886.134	38.84
886.3	38.87
886.465	40.3
886.631	38.83
886.797	41.54
886.962	40.78
887.128	38.85
887.293	38.7
887.459	35.42
887.625	30.33
887.79	37.43
887.956	41.87
888.121	41
888.287	37.55
888.452	33.06
888.618	25.97
888.783	13.9
