Data from 2938771__Reflection_05.txt Node
Date: Fri Mar 13 15:13:39 EDT 2015
User: robert
Spectrometer: USB4E03002
Autoset integration time: false
Trigger mode: 4
Integration Time (sec): 1.000000E-1
Scans to average: 10
Electric dark correction enabled: false
Nonlinearity correction enabled: false
Boxcar width: 5
Stray light correction enabled: false
XAxis mode: Wavelengths
Stop averaging: false
Number of Pixels in Spectrum: 3648
>>>>>Begin Spectral Data<<<<<
177.575	-362.5
177.794	-705.48
178.014	-2248.15
178.233	1053.73
178.452	2372.97
178.672	510.23
178.891	564.63
179.11	3739.13
179.33	-1317.91
179.549	-530.95
179.768	-2350
179.987	889.55
180.207	2633.33
180.426	1143.08
180.645	-2145.71
180.864	-1006.45
181.084	-273.23
181.303	-379.91
181.522	-1719.15
181.741	4386.67
181.96	253.65
182.179	196.55
182.398	143.1
182.618	126.36
182.837	139.11
183.056	87.64
183.275	66.84
183.494	47.78
183.713	9.25
183.932	26.32
184.151	36.83
184.37	17.24
184.589	41.01
184.808	66.67
185.027	89.82
185.246	109.84
185.465	114.62
185.684	164.27
185.903	139.47
186.122	98.36
186.341	85.93
186.56	109.55
186.779	171.81
186.998	163.43
187.216	214.15
187.435	549.15
187.654	237.17
187.873	180.05
188.092	160.27
188.311	324.28
188.53	264.9
188.748	801.56
188.967	-1287.5
189.186	261.59
189.405	279.86
189.623	191.3
189.842	155.31
190.061	180.05
190.28	282.08
190.498	183.8
190.717	151.73
190.936	171.45
191.154	172.96
191.373	198.31
191.592	204.1
191.81	172.77
192.029	170.89
192.248	193.52
192.466	175.66
192.685	161.14
192.904	205.53
193.122	243.96
193.341	330.47
193.559	505.63
193.778	321.86
193.996	395.52
194.215	3388
194.433	873.83
194.652	542.57
194.87	958.51
195.089	14880
195.307	2776.92
195.526	-614.95
195.744	1755.32
195.963	508.74
196.181	428.93
196.399	303.73
196.618	286.23
196.836	360.87
197.055	592.21
197.273	945.05
197.491	2582.35
197.71	1581.48
197.928	482.12
198.146	661.86
198.365	757.33
198.583	765.15
198.801	-131.44
199.019	-92.41
199.238	-7.35
199.456	-15.37
199.674	-63.58
199.892	-62.6
200.111	-41.39
200.329	-41.27
200.547	-30.54
200.765	-171.56
200.983	-129.22
201.202	-379.44
201.42	-906.25
201.638	2213.04
201.856	445.36
202.074	934.15
202.292	301.05
202.51	441.09
202.728	215.74
202.946	385.91
203.165	963.49
203.383	47600
203.601	328.17
203.819	291.09
204.037	211.23
204.255	302.3
204.473	175.79
204.691	330.94
204.909	148.49
205.127	238.91
205.345	142.01
205.562	83.28
205.78	103.71
205.998	117.94
206.216	129.38
206.434	111.45
206.652	112.85
206.87	155.9
207.088	143.67
207.306	193.17
207.523	153.93
207.741	161.5
207.959	171.19
208.177	190.53
208.395	226.62
208.612	297.48
208.83	276.61
209.048	342.39
209.266	1963.33
209.483	-1285.29
209.701	-2104
209.919	973.44
210.136	11780
210.354	-1566.67
210.572	-244.81
210.79	476.64
211.007	193.21
211.225	766.1
211.442	193.94
211.66	120.9
211.878	140.47
212.095	270.87
212.313	280.09
212.53	294.53
212.748	243.81
212.966	169.05
213.183	214.55
213.401	211.67
213.618	173.2
213.836	179.92
214.053	202.12
214.271	191.04
214.488	66.82
214.705	72.34
214.923	51.21
215.14	65.54
215.358	72.31
215.575	69.24
215.793	71.67
216.01	73.48
216.227	73.12
216.445	71.45
216.662	61.84
216.879	71.62
217.097	71.48
217.314	89.72
217.531	84.42
217.749	75.53
217.966	92.64
218.183	99.5
218.4	72.24
218.618	65.71
218.835	59.13
219.052	59.72
219.269	54.85
219.487	51.51
219.704	44
219.921	47.73
220.138	48.65
220.355	33.91
220.572	31.75
220.79	35.3
221.007	20.9
221.224	20.57
221.441	22.32
221.658	28.33
221.875	27.72
222.092	28.97
222.309	18.84
222.526	20.72
222.743	20.03
222.96	25.33
223.177	30.16
223.394	34.78
223.611	32.64
223.828	35.25
224.045	32.85
224.262	44.83
224.479	42.51
224.696	44.71
224.913	43.39
225.13	44.7
225.347	41.2
225.564	39.45
225.781	40.4
225.997	36.24
226.214	31.63
226.431	29.21
226.648	17.67
226.865	15.72
227.082	14.08
227.298	11.85
227.515	9.27
227.732	8.05
227.949	6.33
228.165	6.36
228.382	7.3
228.599	7.21
228.816	7.11
229.032	7.58
229.249	6.88
229.466	7.09
229.682	7.13
229.899	7.27
230.116	6.9
230.332	7.98
230.549	7.92
230.765	8.31
230.982	8.43
231.199	8.05
231.415	9.3
231.632	9.98
231.848	10.81
232.065	9.99
232.281	10.71
232.498	11.48
232.714	10.96
232.931	11.53
233.147	11.09
233.364	11.37
233.58	10.09
233.797	8.69
234.013	8.53
234.23	7.03
234.446	8.33
234.662	7.41
234.879	8.04
235.095	8.2
235.312	9.17
235.528	7.98
235.744	8.23
235.961	10.03
236.177	9.79
236.393	10.1
236.61	11.09
236.826	10.4
237.042	10.63
237.258	9.4
237.475	9.53
237.691	6.76
237.907	6.48
238.123	5.51
238.339	5.92
238.556	6.51
238.772	6.84
238.988	4.73
239.204	4.59
239.42	4.94
239.636	6.37
239.853	5.53
240.069	6.82
240.285	7.62
240.501	8.03
240.717	8.06
240.933	8.07
241.149	7.61
241.365	7.75
241.581	7.2
241.797	7.62
242.013	7.57
242.229	7.94
242.445	7.39
242.661	7.51
242.877	7.39
243.093	7.21
243.309	6.97
243.525	6.67
243.741	7.01
243.957	7.53
244.173	6.76
244.388	6.31
244.604	6.1
244.82	6.41
245.036	5.62
245.252	5.04
245.468	4.99
245.683	5.63
245.899	5.5
246.115	5.8
246.331	5.87
246.547	5.95
246.762	5.93
246.978	5.92
247.194	6.08
247.409	6.21
247.625	6.07
247.841	6.04
248.057	5.98
248.272	6.21
248.488	6.11
248.703	6.34
248.919	6.45
249.135	6.43
249.35	6.56
249.566	6.37
249.782	6.7
249.997	7.52
250.213	7.98
250.428	8.01
250.644	7.52
250.859	7.03
251.075	6.59
251.29	5.97
251.506	6.95
251.721	6.79
251.937	6.25
252.152	5.91
252.368	6.52
252.583	5.84
252.798	5.69
253.014	6.5
253.229	6.89
253.445	6.81
253.66	7.23
253.875	6.52
254.091	6.05
254.306	6.4
254.521	6.57
254.737	5.84
254.952	6.07
255.167	5.62
255.383	5
255.598	5.09
255.813	4.91
256.028	4.7
256.244	3.59
256.459	3.73
256.674	3.19
256.889	3.36
257.104	2.91
257.32	3.35
257.535	3.41
257.75	3.93
257.965	3.6
258.18	3.54
258.395	3.55
258.61	4.11
258.826	4.17
259.041	4.29
259.256	4.28
259.471	4
259.686	3.77
259.901	3.54
260.116	3.12
260.331	3.15
260.546	3.13
260.761	3.15
260.976	2.89
261.191	2.9
261.406	2.59
261.621	2.57
261.836	2.66
262.05	2.27
262.265	2.41
262.48	2.2
262.695	2.51
262.91	2.43
263.125	2.53
263.34	2.51
263.555	2.1
263.769	2.69
263.984	1.98
264.199	1.26
264.414	1.75
264.629	2.06
264.843	2.81
265.058	2.81
265.273	3.18
265.488	3.26
265.702	3.82
265.917	3.96
266.132	3.89
266.346	4.29
266.561	5.42
266.776	5.38
266.99	5.16
267.205	5.26
267.42	5.22
267.634	4.94
267.849	4.74
268.063	4.86
268.278	5.19
268.492	5.34
268.707	5.46
268.922	5.15
269.136	5.53
269.351	5.01
269.565	5.01
269.78	5.02
269.994	5.28
270.209	5.15
270.423	4.9
270.637	4.49
270.852	4.38
271.066	4.37
271.281	4.08
271.495	3.86
271.709	4.28
271.924	4.04
272.138	3.9
272.353	3.69
272.567	4.01
272.781	3.94
272.996	4.2
273.21	4.54
273.424	4.37
273.638	4.4
273.853	4.33
274.067	4.49
274.281	4.74
274.495	4.54
274.71	5.07
274.924	5.11
275.138	5.13
275.352	5.28
275.566	4.83
275.781	4.94
275.995	5.09
276.209	5.21
276.423	4.5
276.637	3.98
276.851	4.57
277.065	4.44
277.279	4.26
277.493	4.32
277.707	4.16
277.921	3.96
278.135	3.89
278.349	3.54
278.563	3.7
278.777	4.1
278.991	4.72
279.205	4.44
279.419	4.06
279.633	3.63
279.847	3.5
280.061	3.11
280.275	3.22
280.489	2.88
280.703	3.41
280.917	3.04
281.131	2.82
281.344	2.37
281.558	2.14
281.772	2.23
281.986	2.38
282.2	2.48
282.414	2.39
282.627	2.19
282.841	2.46
283.055	2.49
283.269	2.26
283.482	2.51
283.696	2.6
283.91	2.58
284.123	2.44
284.337	2.8
284.551	2.9
284.764	3.09
284.978	3.38
285.192	3.09
285.405	2.74
285.619	2.89
285.833	2.9
286.046	2.76
286.26	2.8
286.473	3.1
286.687	3
286.9	2.97
287.114	2.88
287.327	2.72
287.541	3
287.754	3.06
287.968	3.29
288.181	3.39
288.395	3.78
288.608	3.93
288.822	3.51
289.035	3.36
289.248	3.16
289.462	3.37
289.675	3.57
289.889	3.64
290.102	3.67
290.315	3.76
290.529	3.72
290.742	3.55
290.955	3.3
291.169	3.9
291.382	4.13
291.595	4.21
291.808	4.11
292.022	4.28
292.235	4.07
292.448	4.35
292.661	4.18
292.875	4.15
293.088	4.69
293.301	4.75
293.514	4.39
293.727	4.62
293.94	4.82
294.153	4.93
294.367	4.52
294.58	4.43
294.793	4.11
295.006	3.95
295.219	3.75
295.432	3.08
295.645	3.4
295.858	3.07
296.071	3.01
296.284	2.82
296.497	2.97
296.71	3.28
296.923	3.47
297.136	3.55
297.349	3.65
297.562	3.73
297.775	4.05
297.988	4.09
298.201	4.38
298.414	4.27
298.626	4.58
298.839	4.4
299.052	4.47
299.265	4.4
299.478	4.46
299.691	4.52
299.903	4.84
300.116	4.88
300.329	4.49
300.542	4.78
300.755	4.96
300.967	4.61
301.18	4.54
301.393	4.48
301.605	4.58
301.818	4.74
302.031	5.04
302.243	4.62
302.456	4.47
302.669	4.54
302.881	4.08
303.094	3.74
303.307	4.06
303.519	3.89
303.732	3.78
303.944	3.64
304.157	3.63
304.37	3.38
304.582	3.62
304.795	3.62
305.007	4.18
305.22	4.09
305.432	4.2
305.645	3.94
305.857	4.47
306.069	4.54
306.282	4.82
306.494	4.63
306.707	4.36
306.919	4.03
307.132	4.4
307.344	4.22
307.556	4.69
307.769	4.75
307.981	4.98
308.193	4.61
308.406	4.74
308.618	4.72
308.83	5.16
309.043	5.45
309.255	5.64
309.467	5.29
309.679	5.09
309.892	5
310.104	5.08
310.316	4.47
310.528	4.44
310.74	4.42
310.953	4.44
311.165	4.19
311.377	3.85
311.589	4.13
311.801	4.06
312.013	4.17
312.225	4.03
312.437	4.22
312.649	4.83
312.862	5.3
313.074	5
313.286	5.14
313.498	4.86
313.71	5.79
313.922	5.66
314.134	6.05
314.346	6.04
314.558	6.73
314.77	6.36
314.982	6.43
315.193	6.36
315.405	6.84
315.617	6.62
315.829	7.03
316.041	6.73
316.253	6.51
316.465	7.21
316.677	7.17
316.888	6.9
317.1	7.1
317.312	7.23
317.524	7.15
317.736	7.57
317.947	7.95
318.159	8.44
318.371	8.37
318.583	9.17
318.794	8.66
319.006	8.92
319.218	8.84
319.43	8.75
319.641	9.29
319.853	9.47
320.064	9.1
320.276	9.12
320.488	8.52
320.699	8.9
320.911	9.02
321.123	9.19
321.334	9.06
321.546	9.47
321.757	9.64
321.969	8.98
322.18	9.48
322.392	9.84
322.603	9.95
322.815	10.51
323.026	10.73
323.238	10.41
323.449	10.31
323.661	10.31
323.872	10.41
324.083	10.55
324.295	11.34
324.506	11.22
324.718	10.98
324.929	11.29
325.14	11.68
325.352	11.78
325.563	12.24
325.774	12.57
325.986	13.24
326.197	13.88
326.408	14.58
326.62	14.83
326.831	15.48
327.042	16.46
327.253	16.79
327.464	16.98
327.676	17.36
327.887	18.1
328.098	18.75
328.309	19.12
328.52	19.58
328.732	20.27
328.943	20.92
329.154	21.26
329.365	21.62
329.576	22.19
329.787	23.14
329.998	23.54
330.209	24.07
330.42	24.94
330.631	25.78
330.842	26.16
331.053	26.78
331.264	26.72
331.475	27.45
331.686	28.01
331.897	28.79
332.108	29.2
332.319	30.05
332.53	30.28
332.741	30.79
332.952	30.87
333.163	30.97
333.374	30.81
333.585	31.85
333.795	31.87
334.006	31.96
334.217	32.07
334.428	32.27
334.639	32.62
334.849	32.71
335.06	32.63
335.271	33.32
335.482	34.27
335.692	34.88
335.903	34.83
336.114	35.31
336.325	35.73
336.535	35.83
336.746	36.37
336.957	36.23
337.167	36.52
337.378	36.92
337.589	36.99
337.799	36.68
338.01	36.73
338.22	37.04
338.431	37.13
338.642	37.21
338.852	37.47
339.063	37.36
339.273	37.75
339.484	38.16
339.694	37.93
339.905	37.89
340.115	37.94
340.326	38.02
340.536	37.95
340.746	38.13
340.957	38.45
341.167	38.34
341.378	38.27
341.588	38.05
341.799	38.02
342.009	38.24
342.219	38.37
342.43	38.26
342.64	38.57
342.85	38.8
343.061	38.55
343.271	38.23
343.481	38.3
343.691	38.21
343.902	38.42
344.112	38.21
344.322	38.09
344.532	37.86
344.743	38.08
344.953	37.97
345.163	37.96
345.373	38.29
345.583	38.56
345.793	38.92
346.004	39.11
346.214	39.06
346.424	39.12
346.634	39.07
346.844	39.42
347.054	39.47
347.264	39.37
347.474	39.3
347.684	38.96
347.894	39.04
348.104	38.7
348.314	38.77
348.524	38.61
348.734	38.72
348.944	38.85
349.154	38.91
349.364	38.93
349.574	38.82
349.784	38.87
349.994	39.18
350.204	38.91
350.413	38.99
350.623	39.25
350.833	39.21
351.043	38.97
351.253	38.99
351.463	39.04
351.672	38.99
351.882	39.3
352.092	39.11
352.302	39.2
352.511	39.18
352.721	38.96
352.931	38.53
353.141	38.56
353.35	38.53
353.56	38.51
353.77	38.26
353.979	38.18
354.189	37.72
354.399	37.76
354.608	37.57
354.818	37.41
355.027	37.67
355.237	37.74
355.447	37.72
355.656	38.02
355.866	37.82
356.075	37.96
356.285	37.8
356.494	37.95
356.704	37.95
356.913	37.75
357.123	38.02
357.332	37.9
357.542	37.78
357.751	38.19
357.96	38
358.17	38.05
358.379	37.75
358.589	37.92
358.798	38.07
359.007	37.86
359.217	38.07
359.426	37.96
359.635	38.15
359.845	38.06
360.054	37.45
360.263	37.4
360.472	37.24
360.682	37.35
360.891	37.16
361.1	36.9
361.309	37.07
361.519	36.78
361.728	36.51
361.937	36.26
362.146	36.18
362.355	36.28
362.564	36.25
362.774	36.38
362.983	36.14
363.192	36.22
363.401	36.2
363.61	35.83
363.819	35.96
364.028	35.85
364.237	35.78
364.446	35.68
364.655	35.88
364.864	35.9
365.073	35.9
365.282	36.11
365.491	35.89
365.7	36.02
365.909	36.3
366.118	36.38
366.327	36.46
366.536	36.43
366.745	36.59
366.954	36.34
367.162	36.1
367.371	36.09
367.58	36.09
367.789	36.15
367.998	36.06
368.207	35.88
368.415	35.65
368.624	35.69
368.833	35.84
369.042	35.88
369.25	35.97
369.459	36.24
369.668	36.11
369.877	35.89
370.085	35.78
370.294	35.91
370.503	35.98
370.711	35.99
370.92	36.19
371.129	36.05
371.337	36.04
371.546	36.17
371.754	36.06
371.963	36.01
372.171	36.09
372.38	36.15
372.589	35.94
372.797	35.74
373.006	35.81
373.214	35.92
373.423	35.79
373.631	35.74
373.84	35.59
374.048	35.47
374.256	35.42
374.465	35.37
374.673	35.33
374.882	35.4
375.09	35.59
375.298	35.69
375.507	35.3
375.715	35.19
375.923	35.1
376.132	34.99
376.34	35.03
376.548	35.13
376.757	35.14
376.965	35.07
377.173	34.88
377.381	34.9
377.59	34.7
377.798	34.8
378.006	34.87
378.214	34.91
378.423	35.03
378.631	35.04
378.839	34.73
379.047	34.79
379.255	35.01
379.463	34.95
379.671	34.72
379.879	34.73
380.088	34.53
380.296	34.64
380.504	34.51
380.712	34.47
380.92	34.48
381.128	34.7
381.336	34.37
381.544	34.16
381.752	34.02
381.96	34.18
382.168	34.25
382.376	34.53
382.584	34.5
382.791	34.52
382.999	34.38
383.207	34.19
383.415	34.03
383.623	34.05
383.831	34.17
384.039	34.36
384.247	34.21
384.454	34.01
384.662	33.89
384.87	33.76
385.078	33.75
385.285	33.6
385.493	33.66
385.701	33.81
385.909	33.96
386.116	33.91
386.324	33.84
386.532	33.78
386.739	33.64
386.947	33.64
387.155	33.77
387.362	33.74
387.57	33.76
387.778	33.77
387.985	33.7
388.193	33.66
388.4	33.57
388.608	33.75
388.816	33.71
389.023	33.88
389.231	33.82
389.438	33.85
389.646	33.92
389.853	34.12
390.061	34.21
390.268	34.05
390.475	33.93
390.683	33.88
390.89	33.78
391.098	33.73
391.305	33.74
391.512	33.6
391.72	33.42
391.927	33.37
392.135	33.26
392.342	33.21
392.549	33.21
392.756	33.01
392.964	32.91
393.171	32.73
393.378	32.55
393.586	32.5
393.793	32.36
394	32.28
394.207	32.3
394.414	32.3
394.622	32.01
394.829	32.25
395.036	32.56
395.243	32.64
395.45	32.73
395.657	32.95
395.864	32.94
396.072	32.94
396.279	33.08
396.486	32.79
396.693	32.76
396.9	32.87
397.107	32.61
397.314	32.58
397.521	32.57
397.728	32.52
397.935	32.63
398.142	32.71
398.349	32.79
398.556	32.59
398.763	32.67
398.97	32.52
399.177	32.41
399.383	32.32
399.59	32.16
399.797	32.03
400.004	31.89
400.211	31.89
400.418	31.64
400.625	31.72
400.831	31.85
401.038	32.09
401.245	32.11
401.452	32.33
401.658	32.45
401.865	32.46
402.072	32.56
402.279	32.66
402.485	32.49
402.692	32.52
402.899	32.43
403.105	32.36
403.312	32.05
403.519	31.96
403.725	31.93
403.932	31.88
404.138	31.82
404.345	31.91
404.552	31.77
404.758	31.77
404.965	31.8
405.171	31.84
405.378	31.74
405.584	31.77
405.791	31.86
405.997	31.77
406.204	31.77
406.41	31.87
406.617	31.81
406.823	32.06
407.029	32.19
407.236	32.3
407.442	32.35
407.649	32.53
407.855	32.41
408.061	32.51
408.268	32.61
408.474	32.61
408.68	32.5
408.887	32.5
409.093	32.36
409.299	32.23
409.505	32.16
409.712	32.12
409.918	32.18
410.124	32.35
410.33	32.42
410.537	32.3
410.743	32.18
410.949	32.21
411.155	32.26
411.361	32.35
411.567	32.59
411.773	32.57
411.98	32.61
412.186	32.4
412.392	32.52
412.598	32.5
412.804	32.58
413.01	32.57
413.216	32.67
413.422	32.54
413.628	32.36
413.834	32.12
414.04	32.18
414.246	32.1
414.452	32.19
414.658	32.18
414.864	32.12
415.07	32.31
415.275	32.4
415.481	32.26
415.687	32.25
415.893	32.39
416.099	32.3
416.305	32.25
416.511	32.27
416.716	32.21
416.922	32.2
417.128	32.11
417.334	31.96
417.539	31.94
417.745	32.03
417.951	32.04
418.157	31.92
418.362	31.96
418.568	31.9
418.774	31.89
418.979	31.94
419.185	31.88
419.391	31.91
419.596	31.89
419.802	31.89
420.008	31.82
420.213	31.85
420.419	31.92
420.624	31.79
420.83	31.85
421.035	31.92
421.241	31.91
421.446	31.92
421.652	31.95
421.857	32.06
422.063	32.01
422.268	32.08
422.474	32.07
422.679	32.11
422.885	32.21
423.09	32.21
423.295	32.16
423.501	32.19
423.706	32.11
423.911	32.03
424.117	31.96
424.322	31.96
424.527	31.9
424.733	31.92
424.938	31.91
425.143	31.98
425.349	31.97
425.554	31.96
425.759	31.88
425.964	31.9
426.169	31.97
426.375	31.94
426.58	31.98
426.785	32.05
426.99	32.03
427.195	32.06
427.4	32.04
427.605	32.06
427.811	32.1
428.016	32.26
428.221	32.35
428.426	32.29
428.631	32.41
428.836	32.54
429.041	32.54
429.246	32.48
429.451	32.5
429.656	32.63
429.861	32.63
430.066	32.69
430.271	32.62
430.476	32.62
430.681	32.78
430.886	32.63
431.09	32.57
431.295	32.73
431.5	32.89
431.705	32.9
431.91	32.79
432.115	32.92
432.32	32.96
432.524	33.08
432.729	33.07
432.934	33
433.139	33.08
433.343	33.05
433.548	33.01
433.753	33.04
433.958	33.05
434.162	33.08
434.367	33.07
434.572	33.02
434.776	33.04
434.981	33.13
435.186	33.26
435.39	33.31
435.595	33.38
435.799	33.38
436.004	33.4
436.209	33.44
436.413	33.64
436.618	33.62
436.822	33.7
437.027	33.78
437.231	33.74
437.436	33.73
437.64	33.77
437.845	33.85
438.049	33.89
438.253	33.81
438.458	33.86
438.662	33.73
438.867	33.9
439.071	33.82
439.275	33.85
439.48	33.91
439.684	33.92
439.888	33.95
440.093	33.98
440.297	33.96
440.501	33.93
440.706	33.87
440.91	33.88
441.114	33.82
441.318	33.79
441.523	33.7
441.727	33.72
441.931	33.71
442.135	33.69
442.339	33.67
442.543	33.71
442.748	33.79
442.952	33.83
443.156	33.83
443.36	33.85
443.564	33.91
443.768	34.02
443.972	33.91
444.176	33.96
444.38	33.93
444.584	33.92
444.788	33.89
444.992	33.87
445.196	33.89
445.4	33.93
445.604	33.87
445.808	33.89
446.012	33.71
446.216	33.79
446.42	33.76
446.624	33.72
446.828	33.76
447.032	33.69
447.235	33.71
447.439	33.68
447.643	33.66
447.847	33.7
448.051	33.68
448.254	33.73
448.458	33.67
448.662	33.68
448.866	33.66
449.069	33.58
449.273	33.65
449.477	33.7
449.681	33.62
449.884	33.57
450.088	33.61
450.292	33.6
450.495	33.82
450.699	33.87
450.902	33.82
451.106	33.96
451.31	34.1
451.513	34.04
451.717	33.99
451.92	34.09
452.124	34.11
452.327	33.97
452.531	34.03
452.734	33.97
452.938	33.99
453.141	34.08
453.345	34.13
453.548	34.03
453.752	34.01
453.955	34.04
454.158	34.08
454.362	34.08
454.565	34.17
454.769	34.06
454.972	33.98
455.175	33.97
455.379	33.89
455.582	33.87
455.785	33.8
455.988	33.94
456.192	33.99
456.395	33.95
456.598	33.95
456.801	33.9
457.005	34.09
457.208	34.09
457.411	34.17
457.614	34.21
457.817	34.12
458.021	34.22
458.224	34.24
458.427	34.23
458.63	34.2
458.833	34.22
459.036	34.17
459.239	34.01
459.442	34
459.645	33.98
459.848	33.96
460.051	33.9
460.254	33.89
460.457	33.88
460.66	33.86
460.863	33.99
461.066	34.05
461.269	34.16
461.472	34.19
461.675	34.23
461.878	34.2
462.081	34.21
462.284	34.4
462.486	34.37
462.689	34.3
462.892	34.22
463.095	34.08
463.298	34.1
463.5	34.05
463.703	34.2
463.906	34.24
464.109	34.22
464.311	34.29
464.514	34.24
464.717	34.25
464.92	34.43
465.122	34.55
465.325	34.62
465.528	34.57
465.73	34.63
465.933	34.67
466.135	34.64
466.338	34.77
466.541	34.7
466.743	34.63
466.946	34.68
467.148	34.59
467.351	34.58
467.553	34.68
467.756	34.68
467.958	34.61
468.161	34.6
468.363	34.67
468.566	34.61
468.768	34.65
468.971	34.69
469.173	34.66
469.375	34.74
469.578	34.8
469.78	34.77
469.983	34.71
470.185	34.77
470.387	34.76
470.59	34.68
470.792	34.71
470.994	34.84
471.196	34.93
471.399	35.01
471.601	35.02
471.803	35.08
472.005	35
472.208	35.12
472.41	35.17
472.612	35.19
472.814	35.21
473.016	35.19
473.218	35.12
473.421	35.1
473.623	35.1
473.825	35.12
474.027	35.22
474.229	35.31
474.431	35.22
474.633	35.29
474.835	35.24
475.037	35.3
475.239	35.39
475.441	35.41
475.643	35.53
475.845	35.54
476.047	35.48
476.249	35.31
476.451	35.23
476.653	35.31
476.855	35.21
477.057	35.3
477.258	35.28
477.46	35.16
477.662	35.1
477.864	34.96
478.066	34.89
478.268	34.86
478.469	34.85
478.671	34.82
478.873	34.76
479.075	34.72
479.276	34.73
479.478	34.7
479.68	34.8
479.882	34.82
480.083	34.8
480.285	34.88
480.487	34.94
480.688	34.95
480.89	34.99
481.091	35.02
481.293	35.03
481.495	34.95
481.696	34.95
481.898	34.94
482.099	34.9
482.301	34.92
482.502	34.83
482.704	34.77
482.905	34.75
483.107	34.73
483.308	34.69
483.51	34.68
483.711	34.67
483.913	34.64
484.114	34.58
484.315	34.57
484.517	34.57
484.718	34.55
484.92	34.55
485.121	34.49
485.322	34.52
485.524	34.52
485.725	34.48
485.926	34.49
486.127	34.49
486.329	34.54
486.53	34.56
486.731	34.59
486.932	34.67
487.134	34.68
487.335	34.74
487.536	34.68
487.737	34.65
487.938	34.7
488.139	34.73
488.341	34.78
488.542	34.72
488.743	34.72
488.944	34.71
489.145	34.67
489.346	34.73
489.547	34.83
489.748	34.86
489.949	34.93
490.15	34.93
490.351	34.96
490.552	35.01
490.753	35.11
490.954	35.14
491.155	35.12
491.356	35.14
491.557	35.08
491.758	35.01
491.959	35.04
492.159	35.05
492.36	35.1
492.561	35.1
492.762	35.08
492.963	35.05
493.164	35.04
493.364	35.03
493.565	35.03
493.766	35.09
493.967	35.19
494.167	35.22
494.368	35.25
494.569	35.28
494.769	35.32
494.97	35.32
495.171	35.38
495.371	35.38
495.572	35.63
495.773	35.73
495.973	35.73
496.174	35.69
496.375	35.78
496.575	35.87
496.776	35.92
496.976	35.96
497.177	35.97
497.377	36.03
497.578	36.11
497.778	36.06
497.979	36.06
498.179	36.19
498.38	36.21
498.58	36.25
498.78	36.12
498.981	36.15
499.181	36.1
499.382	36.19
499.582	36.2
499.782	36.32
499.983	36.33
500.183	36.3
500.383	36.2
500.584	36.32
500.784	36.25
500.984	36.46
501.184	36.48
501.385	36.58
501.585	36.65
501.785	36.75
501.985	36.77
502.185	36.86
502.386	37.02
502.586	37.12
502.786	37.18
502.986	37.24
503.186	37.26
503.386	37.25
503.586	37.28
503.786	37.27
503.987	37.23
504.187	37.2
504.387	37.2
504.587	37.18
504.787	37.32
504.987	37.33
505.187	37.46
505.387	37.44
505.587	37.5
505.786	37.55
505.986	37.61
506.186	37.67
506.386	37.72
506.586	37.74
506.786	37.79
506.986	37.85
507.186	37.93
507.386	37.92
507.585	38.01
507.785	38.01
507.985	38.16
508.185	38.29
508.384	38.4
508.584	38.45
508.784	38.56
508.984	38.65
509.183	38.59
509.383	38.62
509.583	38.76
509.782	38.72
509.982	38.91
510.182	38.91
510.381	39.02
510.581	38.95
510.781	38.95
510.98	39.08
511.18	39.07
511.379	39.15
511.579	39.16
511.778	39.26
511.978	39.36
512.177	39.35
512.377	39.39
512.576	39.34
512.776	39.56
512.975	39.76
513.175	39.82
513.374	39.85
513.573	39.91
513.773	40.01
513.972	40
514.172	40.13
514.371	40.18
514.57	40.21
514.77	40.18
514.969	40.12
515.168	40.05
515.367	40.02
515.567	40.25
515.766	40.38
515.965	40.41
516.164	40.5
516.364	40.46
516.563	40.55
516.762	40.56
516.961	40.72
517.16	40.83
517.359	40.95
517.559	40.97
517.758	40.96
517.957	40.96
518.156	41.01
518.355	41.02
518.554	41.15
518.753	41.19
518.952	41.33
519.151	41.41
519.35	41.45
519.549	41.41
519.748	41.48
519.947	41.52
520.146	41.65
520.345	41.76
520.544	41.9
520.743	41.94
520.942	42.04
521.141	42.04
521.339	42.01
521.538	42.09
521.737	42.27
521.936	42.35
522.135	42.43
522.333	42.39
522.532	42.39
522.731	42.37
522.93	42.38
523.129	42.38
523.327	42.43
523.526	42.48
523.725	42.45
523.923	42.47
524.122	42.51
524.321	42.53
524.519	42.56
524.718	42.61
524.917	42.65
525.115	42.67
525.314	42.74
525.512	42.75
525.711	42.84
525.909	42.88
526.108	42.98
526.306	42.98
526.505	43.01
526.703	43.03
526.902	43.07
527.1	43.07
527.299	43.12
527.497	43.15
527.696	43.2
527.894	43.14
528.092	43.15
528.291	43.08
528.489	43.05
528.688	43.05
528.886	43.07
529.084	43.05
529.283	43.06
529.481	43.09
529.679	43.06
529.877	43.04
530.076	43.11
530.274	43.15
530.472	43.22
530.67	43.28
530.869	43.34
531.067	43.4
531.265	43.51
531.463	43.58
531.661	43.53
531.859	43.57
532.057	43.6
532.255	43.64
532.454	43.7
532.652	43.68
532.85	43.76
533.048	43.77
533.246	43.77
533.444	43.67
533.642	43.65
533.84	43.74
534.038	43.79
534.236	43.81
534.434	43.83
534.632	43.76
534.83	43.78
535.027	43.78
535.225	43.77
535.423	43.88
535.621	44
535.819	44.11
536.017	44.12
536.215	44.13
536.412	44.23
536.61	44.16
536.808	44.21
537.006	44.28
537.203	44.23
537.401	44.29
537.599	44.25
537.797	44.21
537.994	44.13
538.192	44.26
538.39	44.3
538.587	44.27
538.785	44.39
538.983	44.5
539.18	44.53
539.378	44.65
539.575	44.62
539.773	44.69
539.97	44.73
540.168	44.77
540.366	44.73
540.563	44.75
540.761	44.7
540.958	44.7
541.155	44.71
541.353	44.73
541.55	44.74
541.748	44.75
541.945	44.72
542.143	44.71
542.34	44.69
542.537	44.67
542.735	44.65
542.932	44.71
543.129	44.71
543.327	44.68
543.524	44.62
543.721	44.62
543.919	44.66
544.116	44.81
544.313	44.85
544.51	44.96
544.708	45.06
544.905	45.2
545.102	45.31
545.299	45.32
545.496	45.46
545.693	45.5
545.891	45.49
546.088	45.48
546.285	45.36
546.482	45.34
546.679	45.23
546.876	45.17
547.073	45.03
547.27	44.88
547.467	44.89
547.664	44.83
547.861	44.85
548.058	44.86
548.255	44.89
548.452	44.85
548.649	44.89
548.846	44.93
549.043	44.88
549.24	44.93
549.437	45
549.633	44.98
549.83	45
550.027	45.05
550.224	45.19
550.421	45.22
550.618	45.33
550.814	45.39
551.011	45.41
551.208	45.47
551.405	45.39
551.601	45.42
551.798	45.41
551.995	45.39
552.191	45.35
552.388	45.29
552.585	45.23
552.781	45.25
552.978	45.16
553.175	45.17
553.371	45.11
553.568	45.19
553.764	45.25
553.961	45.32
554.157	45.25
554.354	45.25
554.55	45.25
554.747	45.26
554.943	45.1
555.14	45.16
555.336	45.1
555.533	45.18
555.729	45.14
555.926	45.04
556.122	45.1
556.318	45.2
556.515	45.2
556.711	44.99
556.907	44.97
557.104	44.98
557.3	45.06
557.496	45.07
557.693	44.92
557.889	45.03
558.085	45.09
558.281	44.91
558.478	44.86
558.674	44.91
558.87	45.05
559.066	45.18
559.262	45.16
559.459	45.04
559.655	45.02
559.851	45.09
560.047	45.06
560.243	44.91
560.439	44.96
560.635	44.91
560.831	45.04
561.027	45.03
561.223	44.98
561.419	44.94
561.615	45.14
561.811	45.28
562.007	45.31
562.203	45.32
562.399	45.34
562.595	45.47
562.791	45.61
562.987	45.5
563.183	45.61
563.379	45.78
563.575	45.96
563.771	45.83
563.966	45.78
564.162	45.91
564.358	45.77
564.554	45.81
564.75	45.8
564.945	45.7
565.141	45.68
565.337	45.63
565.533	45.6
565.728	45.49
565.924	45.53
566.12	45.51
566.315	45.59
566.511	45.74
566.707	45.78
566.902	45.74
567.098	45.76
567.293	45.69
567.489	45.79
567.684	45.74
567.88	45.73
568.076	45.75
568.271	45.87
568.467	45.7
568.662	45.65
568.858	45.8
569.053	45.83
569.248	45.87
569.444	45.96
569.639	45.86
569.835	45.97
570.03	46.08
570.225	46.02
570.421	45.86
570.616	45.8
570.812	45.93
571.007	45.89
571.202	45.88
571.397	45.73
571.593	45.66
571.788	45.74
571.983	45.5
572.178	45.53
572.374	45.64
572.569	45.68
572.764	45.81
572.959	45.57
573.154	45.52
573.35	45.62
573.545	45.76
573.74	45.88
573.935	45.81
574.13	45.9
574.325	45.83
574.52	45.89
574.715	45.9
574.91	45.82
575.105	46.01
575.3	46.1
575.495	46.05
575.69	46.03
575.885	46.03
576.08	46.05
576.275	46.13
576.47	46.25
576.665	46.24
576.86	46.31
577.055	46.37
577.25	46.36
577.444	46.36
577.639	46.35
577.834	46.55
578.029	46.66
578.224	46.76
578.418	46.78
578.613	46.69
578.808	46.55
579.003	46.55
579.197	46.43
579.392	46.5
579.587	46.46
579.781	46.6
579.976	46.56
580.171	46.45
580.365	46.48
580.56	46.49
580.755	46.56
580.949	46.55
581.144	46.63
581.338	46.97
581.533	46.92
581.727	46.98
581.922	46.98
582.116	46.79
582.311	46.68
582.505	46.76
582.7	46.84
582.894	46.9
583.089	47.1
583.283	47.02
583.478	46.89
583.672	46.88
583.866	46.77
584.061	46.78
584.255	46.96
584.449	47.19
584.644	47.26
584.838	47.27
585.032	47.31
585.226	47.31
585.421	47.45
585.615	47.47
585.809	47.44
586.003	47.49
586.198	47.39
586.392	47.48
586.586	47.5
586.78	47.24
586.974	47.18
587.168	47.12
587.363	47.14
587.557	47.16
587.751	46.98
587.945	47.07
588.139	47.09
588.333	47.09
588.527	47.12
588.721	46.87
588.915	46.93
589.109	46.96
589.303	47.03
589.497	46.99
589.691	46.9
589.885	47.05
590.079	46.97
590.273	47.09
590.466	47.22
590.66	47.17
590.854	47.37
591.048	47.39
591.242	47.38
591.436	47.36
591.629	47.31
591.823	47.46
592.017	47.45
592.211	47.6
592.404	47.64
592.598	47.59
592.792	47.65
592.986	47.55
593.179	47.68
593.373	47.83
593.567	47.84
593.76	47.87
593.954	47.84
594.147	47.9
594.341	47.9
594.535	47.91
594.728	48.01
594.922	47.98
595.115	48.1
595.309	47.99
595.502	47.83
595.696	47.73
595.889	47.8
596.083	47.75
596.276	47.7
596.47	47.75
596.663	47.6
596.856	47.45
597.05	47.36
597.243	47.48
597.437	47.56
597.63	47.58
597.823	47.66
598.017	47.62
598.21	47.69
598.403	47.7
598.596	47.55
598.79	47.57
598.983	47.81
599.176	47.83
599.369	47.69
599.563	47.66
599.756	47.8
599.949	47.87
600.142	47.93
600.335	48.03
600.528	48.23
600.722	48.49
600.915	48.6
601.108	48.59
601.301	48.7
601.494	48.68
601.687	48.72
601.88	48.72
602.073	48.81
602.266	48.84
602.459	48.7
602.652	48.52
602.845	48.47
603.038	48.5
603.231	48.47
603.424	48.53
603.617	48.61
603.809	48.52
604.002	48.53
604.195	48.49
604.388	48.51
604.581	48.55
604.774	48.66
604.966	48.43
605.159	48.53
605.352	48.44
605.545	48.42
605.737	48.34
605.93	48.41
606.123	48.27
606.316	48.28
606.508	48.26
606.701	48.32
606.894	48.39
607.086	48.87
607.279	48.86
607.471	48.97
607.664	49.04
607.857	49.19
608.049	49.31
608.242	49.67
608.434	49.72
608.627	49.98
608.819	50.31
609.012	50.74
609.204	50.95
609.397	51.29
609.589	51.68
609.782	52.27
609.974	52.7
610.166	53.22
610.359	53.58
610.551	54.09
610.743	54.39
610.936	54.74
611.128	54.85
611.32	55.16
611.513	55.36
611.705	55.47
611.897	55.32
612.09	55.24
612.282	55.21
612.474	55.06
612.666	54.85
612.858	54.64
613.051	54.34
613.243	54
613.435	53.63
613.627	53.19
613.819	52.86
614.011	52.57
614.203	52.5
614.395	52.3
614.588	52.22
614.78	52.25
614.972	52.05
615.164	51.85
615.356	51.79
615.548	51.48
615.74	51.51
615.932	51.49
616.124	51.39
616.315	51.2
616.507	50.96
616.699	50.71
616.891	50.45
617.083	50.41
617.275	50.47
617.467	50.54
617.659	50.8
617.85	50.9
618.042	51.02
618.234	50.9
618.426	51.02
618.618	50.89
618.809	51.05
619.001	51.06
619.193	51.12
619.384	51.02
619.576	50.8
619.768	50.61
619.959	50.32
620.151	50.12
620.343	50.25
620.534	50.05
620.726	50.15
620.917	50.23
621.109	50.46
621.301	50.58
621.492	50.52
621.684	50.55
621.875	50.69
622.067	50.75
622.258	50.98
622.45	51.08
622.641	51.02
622.832	51.29
623.024	51.14
623.215	50.96
623.407	50.81
623.598	50.98
623.789	51.08
623.981	51.13
624.172	51.16
624.363	51.07
624.555	50.99
624.746	51.17
624.937	50.81
625.129	50.74
625.32	50.69
625.511	50.73
625.702	50.81
625.893	50.94
626.085	50.74
626.276	50.74
626.467	50.71
626.658	50.77
626.849	50.6
627.04	50.63
627.231	50.79
627.422	50.82
627.614	50.94
627.805	50.85
627.996	50.72
628.187	50.86
628.378	50.99
628.569	51.17
628.76	51.19
628.951	51.49
629.142	51.64
629.332	51.68
629.523	51.73
629.714	51.66
629.905	51.77
630.096	51.82
630.287	51.91
630.478	51.77
630.669	51.78
630.859	51.77
631.05	51.72
631.241	51.89
631.432	51.67
631.623	51.58
631.813	51.49
632.004	51.1
632.195	50.97
632.385	50.81
632.576	50.86
632.767	50.7
632.957	50.63
633.148	50.54
633.339	50.23
633.529	50.38
633.72	50.57
633.91	50.66
634.101	50.9
634.292	50.95
634.482	51.07
634.673	51.08
634.863	51.13
635.054	51.26
635.244	51.12
635.435	51.18
635.625	51.2
635.815	51.11
636.006	50.96
636.196	50.99
636.387	51.03
636.577	50.86
636.767	50.85
636.958	50.64
637.148	50.43
637.338	50.61
637.529	50.69
637.719	50.72
637.909	50.74
638.099	50.96
638.29	51.05
638.48	51.01
638.67	51.08
638.86	51.15
639.05	51.28
639.241	51.34
639.431	51.34
639.621	51.39
639.811	51.26
640.001	51.19
640.191	51.24
640.381	51.13
640.571	51.17
640.761	51.04
640.951	50.91
641.141	51.04
641.331	51.09
641.521	51.1
641.711	51.3
641.901	51.32
642.091	51.32
642.281	51.07
642.471	51.21
642.661	51.15
642.851	51.5
643.041	51.64
643.231	51.69
643.42	51.87
643.61	51.87
643.8	51.74
643.99	51.86
644.18	51.91
644.369	52.16
644.559	52
644.749	51.96
644.939	51.63
645.128	51.7
645.318	51.52
645.508	51.61
645.697	51.58
645.887	51.5
646.076	51.56
646.266	51.46
646.456	51.32
646.645	51.44
646.835	51.64
647.024	51.69
647.214	51.73
647.403	51.85
647.593	51.76
647.782	51.71
647.972	51.83
648.161	51.77
648.351	51.94
648.54	51.92
648.73	51.85
648.919	51.91
649.108	51.99
649.298	51.88
649.487	51.89
649.677	52.02
649.866	52.13
650.055	52.01
650.244	52.11
650.434	52.24
650.623	52.26
650.812	52.4
651.002	52.22
651.191	52.6
651.38	52.54
651.569	52.38
651.758	52.16
651.947	52.03
652.137	52.03
652.326	51.83
652.515	51.58
652.704	51.7
652.893	51.68
653.082	51.83
653.271	51.54
653.46	51.46
653.649	51.53
653.838	51.84
654.027	51.84
654.216	51.72
654.405	51.71
654.594	51.69
654.783	51.65
654.972	51.49
655.161	51.51
655.35	51.19
655.539	51.52
655.728	51.41
655.916	51.14
656.105	51.15
656.294	51.46
656.483	51.66
656.672	51.62
656.86	51.6
657.049	51.79
657.238	51.71
657.427	51.97
657.615	51.74
657.804	51.93
657.993	51.81
658.181	51.84
658.37	51.71
658.559	51.64
658.747	51.7
658.936	51.7
659.125	51.72
659.313	51.89
659.502	52.04
659.69	52.17
659.879	52.14
660.067	52.41
660.256	52.44
660.444	52.16
660.633	52.13
660.821	52.17
661.01	52.13
661.198	52.02
661.387	51.78
661.575	51.56
661.763	51.6
661.952	51.79
662.14	51.7
662.328	51.83
662.517	52.2
662.705	52.21
662.893	52.13
663.082	52.09
663.27	52.14
663.458	52.32
663.646	52.33
663.834	52.33
664.023	51.95
664.211	52.08
664.399	51.97
664.587	51.9
664.775	52.01
664.963	52.03
665.152	52.25
665.34	52.13
665.528	52.03
665.716	52.3
665.904	52.09
666.092	52.02
666.28	51.9
666.468	51.89
666.656	52.1
666.844	52.18
667.032	52.13
667.22	52.13
667.408	52.45
667.596	52.54
667.784	52.15
667.971	52.46
668.159	52.66
668.347	52.6
668.535	52.63
668.723	52.42
668.911	52.4
669.098	52.37
669.286	52.26
669.474	51.96
669.662	51.99
669.849	52.24
670.037	51.94
670.225	52.07
670.413	52.33
670.6	52.41
670.788	52.64
670.976	52.74
671.163	53.08
671.351	52.97
671.538	53.06
671.726	53.05
671.913	53.01
672.101	53.43
672.289	53.41
672.476	52.91
672.664	52.84
672.851	52.88
673.039	52.86
673.226	52.53
673.413	52.86
673.601	53
673.788	53
673.976	53.29
674.163	52.91
674.35	52.98
674.538	53.33
674.725	53.33
674.912	53.14
675.1	53.16
675.287	53.3
675.474	53.17
675.662	53.33
675.849	53.34
676.036	53
676.223	53.22
676.411	53.16
676.598	53.18
676.785	53.27
676.972	53.3
677.159	53.08
677.346	53.16
677.533	53.32
677.721	53.2
677.908	52.97
678.095	52.95
678.282	52.77
678.469	52.49
678.656	52.3
678.843	52.29
679.03	52.29
679.217	52.3
679.404	52.28
679.591	52.17
679.778	52.15
679.964	52.45
680.151	52.32
680.338	52.41
680.525	52.65
680.712	52.54
680.899	52.69
681.086	52.53
681.272	52.48
681.459	52.63
681.646	52.66
681.833	52.68
682.02	52.49
682.206	52.69
682.393	52.78
682.58	52.85
682.766	52.83
682.953	52.64
683.14	52.88
683.326	53.18
683.513	52.88
683.7	52.9
683.886	52.72
684.073	52.8
684.259	52.63
684.446	52.76
684.632	52.84
684.819	53.07
685.005	53.3
685.192	53.31
685.378	53.31
685.565	53.78
685.751	53.92
685.938	54.05
686.124	54.44
686.31	54.53
686.497	54.31
686.683	53.92
686.87	54.02
687.056	53.88
687.242	53.72
687.429	53.49
687.615	53.13
687.801	53.05
687.987	53.13
688.174	52.81
688.36	52.8
688.546	52.91
688.732	53.21
688.918	53.03
689.105	52.99
689.291	53.06
689.477	53.11
689.663	52.98
689.849	52.97
690.035	52.96
690.221	53.14
690.407	53.2
690.593	53.07
690.779	52.84
690.965	52.81
691.151	52.72
691.337	52.9
691.523	52.62
691.709	53.13
691.895	53.08
692.081	52.97
692.267	52.59
692.453	52.53
692.639	52.58
692.825	52.74
693.011	53.01
693.196	53.16
693.382	53.31
693.568	53.68
693.754	53.36
693.94	53.64
694.125	53.7
694.311	53.45
694.497	53.6
694.682	53.44
694.868	53.38
695.054	53.39
695.239	53.33
695.425	53.18
695.611	53.13
695.796	53.06
695.982	52.66
696.168	52.52
696.353	52.88
696.539	52.73
696.724	52.67
696.91	52.47
697.095	52.46
697.281	52.71
697.466	52.74
697.652	52.65
697.837	52.89
698.023	53.03
698.208	53.09
698.393	53.09
698.579	52.87
698.764	53.03
698.949	53.01
699.135	52.76
699.32	52.44
699.505	52.32
699.691	52.42
699.876	52.31
700.061	52.13
700.246	51.94
700.432	51.69
700.617	52
700.802	51.91
700.987	52.28
701.172	52.4
701.358	52.75
701.543	52.79
701.728	52.8
701.913	52.69
702.098	52.9
702.283	53.39
702.468	53.38
702.653	53.75
702.838	54.14
703.023	53.73
703.208	54.24
703.393	54.04
703.578	53.81
703.763	54.01
703.948	54.07
704.133	53.74
704.318	53.88
704.503	54.34
704.688	54.2
704.873	53.83
705.057	54.55
705.242	54.41
705.427	54.94
705.612	55.12
705.797	55.12
705.981	55.11
706.166	55.73
706.351	55.72
706.536	55.93
706.72	56.07
706.905	56.41
707.09	56.27
707.274	56.15
707.459	55.93
707.644	56.15
707.828	55.9
708.013	56.09
708.197	55.72
708.382	55.68
708.567	55.62
708.751	55.4
708.936	55.23
709.12	55.44
709.305	55.36
709.489	55.24
709.673	55.45
709.858	55.62
710.042	55.43
710.227	55.79
710.411	55.67
710.596	55.26
710.78	55.41
710.964	55.4
711.149	55.05
711.333	55.23
711.517	54.82
711.702	54.62
711.886	54.8
712.07	54.73
712.254	54.56
712.438	54.49
712.623	54.55
712.807	54.02
712.991	54.01
713.175	54.04
713.359	54.16
713.544	54.54
713.728	54.31
713.912	53.95
714.096	54.23
714.28	54.28
714.464	54.09
714.648	53.95
714.832	54.23
715.016	53.93
715.2	53.72
715.384	53.61
715.568	53.32
715.752	53.32
715.936	53.44
716.12	52.92
716.304	52.92
716.488	53.06
716.671	53
716.855	53.01
717.039	53.27
717.223	53.46
717.407	53.28
717.59	53.42
717.774	53.58
717.958	53.28
718.142	53.52
718.325	53.66
718.509	53.71
718.693	53.82
718.877	53.53
719.06	53.43
719.244	53.14
719.428	53.1
719.611	52.82
719.795	52.76
719.978	52.58
720.162	52.63
720.345	52.55
720.529	52.08
720.713	52.2
720.896	52.38
721.08	52.41
721.263	52.29
721.446	51.98
721.63	52.48
721.813	52.13
721.997	52.84
722.18	52.91
722.364	52.5
722.547	52.59
722.73	52.71
722.914	53.1
723.097	53.03
723.28	53.21
723.464	53.37
723.647	53.46
723.83	53.25
724.013	53.09
724.197	53.16
724.38	53.35
724.563	54.01
724.746	53.92
724.929	53.37
725.112	53.75
725.296	54.02
725.479	54.13
725.662	54.05
725.845	54.37
726.028	54.38
726.211	54.37
726.394	54.09
726.577	54.01
726.76	54.03
726.943	54.18
727.126	53.62
727.309	53.58
727.492	53.43
727.675	53.46
727.858	53.61
728.041	53.68
728.224	53.59
728.407	53.51
728.589	53.45
728.772	53.43
728.955	53.33
729.138	53.43
729.321	52.86
729.503	53.06
729.686	52.89
729.869	53.06
730.052	52.7
730.234	52.69
730.417	52.51
730.6	51.92
730.782	51.98
730.965	51.85
731.148	52.08
731.33	52.26
731.513	51.83
731.695	52.06
731.878	51.69
732.061	52.32
732.243	52.7
732.426	53.02
732.608	53.17
732.791	53.31
732.973	53.47
733.156	53.27
733.338	53.56
733.52	53.74
733.703	53.33
733.885	53.54
734.068	52.93
734.25	52.66
734.432	52.78
734.615	52.81
734.797	52.54
734.979	52.53
735.162	52.16
735.344	51.93
735.526	52.37
735.708	52.9
735.891	52.87
736.073	52.74
736.255	52.92
736.437	52.55
736.619	52.45
736.802	52.71
736.984	53.16
737.166	54.12
737.348	54.38
737.53	54.1
737.712	53.9
737.894	53.6
738.076	53.71
738.258	53.25
738.44	53.02
738.622	53.55
738.804	53.3
738.986	53.23
739.168	52.99
739.35	52.89
739.532	52.6
739.714	52.16
739.896	52.29
740.078	52.45
740.259	52.36
740.441	53.02
740.623	52.74
740.805	52.77
740.987	52.77
741.168	52.58
741.35	52.37
741.532	52.7
741.714	53.37
741.895	53.09
742.077	53.19
742.259	53.37
742.44	53.2
742.622	53.64
742.804	53.49
742.985	53.06
743.167	52.76
743.348	52.32
743.53	51.96
743.711	51.58
743.893	52.46
744.075	52.2
744.256	51.87
744.438	51.82
744.619	51.8
744.8	52.15
744.982	52.14
745.163	52.6
745.345	53.34
745.526	53.89
745.707	53.76
745.889	53.18
746.07	53.32
746.252	53.68
746.433	53.6
746.614	53.38
746.795	53.51
746.977	53.47
747.158	52.66
747.339	52.28
747.52	52.52
747.702	52.74
747.883	53.37
748.064	53.07
748.245	53.19
748.426	53.5
748.607	53.16
748.788	52.59
748.97	52.69
749.151	53.06
749.332	53.3
749.513	53.19
749.694	53.04
749.875	52.58
750.056	52.81
750.237	53.15
750.418	53.64
750.599	53.34
750.78	53.61
750.96	53.36
751.141	53.66
751.322	53.42
751.503	52.84
751.684	52.4
751.865	52.83
752.046	52.52
752.226	51.96
752.407	50.99
752.588	51.7
752.769	52.13
752.949	51.98
753.13	52.23
753.311	52.4
753.492	52.8
753.672	53.35
753.853	52.62
754.034	53.5
754.214	54.2
754.395	54.21
754.575	53.56
754.756	53.27
754.937	54.05
755.117	54.08
755.298	53.96
755.478	53.9
755.659	54.05
755.839	54.3
756.02	54.25
756.2	53.99
756.381	54.11
756.561	53.76
756.741	53.39
756.922	52.43
757.102	51.21
757.283	51.71
757.463	52.1
757.643	52.35
757.823	51.93
758.004	51.2
758.184	50.87
758.364	50.64
758.545	51.93
758.725	52.03
758.905	52.28
759.085	52.66
759.265	52
759.446	51.37
759.626	50.72
759.806	50.34
759.986	50.39
760.166	50.28
760.346	50.05
760.526	49.53
760.706	49.38
760.886	49.71
761.066	50.19
761.246	50.14
761.426	49.75
761.606	49.8
761.786	49.82
761.966	49.72
762.146	49.61
762.326	49.76
762.506	49.13
762.686	49.37
762.866	49.03
763.046	48.91
763.225	49.12
763.405	48.77
763.585	48.82
763.765	48.84
763.945	48.99
764.124	49.39
764.304	49.57
764.484	49.86
764.664	49.91
764.843	50.4
765.023	50.34
765.203	50.26
765.382	51
765.562	51.32
765.741	51.77
765.921	51.92
766.101	51.77
766.28	51.68
766.46	51.89
766.639	51.98
766.819	52
766.998	52.48
767.178	52.5
767.357	52.48
767.537	52.02
767.716	52.09
767.896	51.86
768.075	51.04
768.254	51.43
768.434	51.46
768.613	50.86
768.792	50.77
768.972	51.06
769.151	51.73
769.33	51.18
769.51	51.36
769.689	51.62
769.868	51.84
770.047	51.79
770.226	51.62
770.406	51.53
770.585	51.58
770.764	51.7
770.943	50.63
771.122	50.03
771.301	50.42
771.48	50.5
771.66	50.32
771.839	50.69
772.018	52.07
772.197	52.37
772.376	51.71
772.555	52.79
772.734	52.54
772.913	52.59
773.092	53.11
773.271	52.97
773.449	53.06
773.628	53.27
773.807	53.46
773.986	53.31
774.165	52.77
774.344	53.45
774.523	52.02
774.701	52.01
774.88	51.96
775.059	51.58
775.238	51.3
775.417	50.97
775.595	50.7
775.774	50.6
775.953	49.74
776.131	49.73
776.31	49.98
776.489	50.38
776.667	50.25
776.846	51.34
777.025	51.5
777.203	52.19
777.382	52.26
777.56	51.99
777.739	52.1
777.917	51.62
778.096	51.24
778.274	50.86
778.453	51.11
778.631	51.37
778.81	51.27
778.988	51.54
779.166	51.41
779.345	51.58
779.523	52.14
779.702	51.98
779.88	53.24
780.058	53.41
780.237	53.92
780.415	54.15
780.593	53.82
780.771	53.28
780.95	52.74
781.128	52.87
781.306	53.2
781.484	52.8
781.662	52.58
781.841	52.91
782.019	53.06
782.197	52.63
782.375	52.02
782.553	52.07
782.731	52.06
782.909	52.2
783.087	52.08
783.265	51.45
783.443	50.84
783.621	50.16
783.799	49.73
783.977	49.79
784.155	49.21
784.333	49.43
784.511	48.11
784.689	47.94
784.867	47.48
785.045	47.9
785.223	46.89
785.4	46.96
785.578	47.46
785.756	47.36
785.934	47.19
786.112	46.27
786.289	46.32
786.467	47.83
786.645	48.5
786.823	48.34
787	47.83
787.178	49.02
787.356	49.26
787.533	48.81
787.711	48.93
787.889	50.18
788.066	50.77
788.244	50.69
788.421	49.76
788.599	49.03
788.776	48.92
788.954	49.91
789.131	49.48
789.309	49.93
789.486	50.14
789.664	50.24
789.841	49.58
790.019	50.23
790.196	50.34
790.373	51.23
790.551	51.57
790.728	52.14
790.906	52.1
791.083	52.23
791.26	51.26
791.437	51.38
791.615	51.2
791.792	51.51
791.969	51.91
792.146	52.83
792.324	52.74
792.501	52.43
792.678	52.36
792.855	51.8
793.032	51.83
793.209	52.45
793.387	53.09
793.564	52.13
793.741	51.68
793.918	50.79
794.095	50.04
794.272	49.07
794.449	48.07
794.626	48.43
794.803	48.99
794.98	48.45
795.157	48.1
795.334	47.38
795.511	48.28
795.688	48.72
795.864	48.82
796.041	48.61
796.218	49.9
796.395	51.24
796.572	51.48
796.749	50.47
796.925	50.74
797.102	51.23
797.279	50.5
797.456	50.38
797.632	49.35
797.809	49.39
797.986	49.8
798.162	48.69
798.339	48.15
798.516	47.61
798.692	47.75
798.869	48.28
799.046	47.56
799.222	48.3
799.399	48.34
799.575	48.89
799.752	49.91
799.928	50.71
800.105	51.03
800.281	51.47
800.458	51.32
800.634	52.15
800.811	51.81
800.987	53.56
801.163	53.73
801.34	53.34
801.516	52.41
801.692	51.25
801.869	51.3
802.045	50.59
802.221	50.8
802.398	50.75
802.574	49.59
802.75	49.89
802.926	48.77
803.103	49.33
803.279	50.71
803.455	51.08
803.631	51.02
803.807	49.82
803.983	51.94
804.16	52.39
804.336	52.58
804.512	52.42
804.688	52.33
804.864	52.78
805.04	52.73
805.216	51.24
805.392	52
805.568	52.57
805.744	52.81
805.92	51.34
806.096	50.47
806.272	50.76
806.448	51.17
806.623	51.55
806.799	52.9
806.975	51.97
807.151	53.29
807.327	52.53
807.503	51.72
807.678	51.4
807.854	51.89
808.03	51.25
808.206	50.81
808.381	51.95
808.557	52.14
808.733	50.17
808.908	51.46
809.084	50.37
809.26	50.2
809.435	50.54
809.611	50.21
809.787	50.28
809.962	50.23
810.138	50.43
810.313	49.89
810.489	48.02
810.664	46.78
810.84	45.08
811.015	46.13
811.191	46.87
811.366	46.85
811.542	47.12
811.717	47.78
811.892	48.85
812.068	49.66
812.243	49.19
812.419	51.26
812.594	53.34
812.769	54.97
812.944	53.31
813.12	53.6
813.295	54.24
813.47	53.5
813.645	52.45
813.821	50.97
813.996	49.8
814.171	50.24
814.346	48.6
814.521	46.03
814.697	45.94
814.872	47.46
815.047	46.33
815.222	46.73
815.397	47.03
815.572	46.84
815.747	47.16
815.922	49.72
816.097	49.42
816.272	50.66
816.447	51.87
816.622	52.09
816.797	51.27
816.972	50.7
817.147	50.15
817.322	50.51
817.496	50.68
817.671	50.27
817.846	47.71
818.021	47.33
818.196	46.63
818.371	47.36
818.545	46.21
818.72	46.63
818.895	46.46
819.069	46.67
819.244	47.81
819.419	47.92
819.594	48.34
819.768	48.21
819.943	48.6
820.117	48.83
820.292	47.8
820.467	47.67
820.641	47.42
820.816	46.89
820.99	46.16
821.165	44.97
821.339	44.54
821.514	44.39
821.688	44.16
821.863	43.65
822.037	43.33
822.212	43.29
822.386	43.29
822.56	42.75
822.735	42.81
822.909	42.72
823.084	42.66
823.258	42.62
823.432	42.66
823.606	42.61
823.781	42.7
823.955	42.51
824.129	42.62
824.303	42.32
824.478	42.61
824.652	42.77
824.826	43.06
825	42.86
825.174	42.75
825.348	42.69
825.523	42.61
825.697	42.31
825.871	43.24
826.045	43.17
826.219	43.22
826.393	43.12
826.567	43.1
826.741	43.13
826.915	44.02
827.089	44.3
827.263	43.64
827.437	43.48
827.611	43.93
827.784	42.91
827.958	42.89
828.132	43.18
828.306	43.14
828.48	43.39
828.654	42.65
828.827	41.9
829.001	42.39
829.175	42.89
829.349	43.64
829.522	42.87
829.696	43.95
829.87	44.48
830.044	44.64
830.217	44.94
830.391	44.44
830.565	45.62
830.738	46.09
830.912	43.81
831.085	43.19
831.259	43.34
831.432	43.17
831.606	43.07
831.779	40.88
831.953	40.76
832.126	40.39
832.3	40.09
832.473	39.66
832.647	39.79
832.82	40.67
832.994	41.33
833.167	41.69
833.34	42.1
833.514	41.73
833.687	42.6
833.86	42.09
834.034	42.07
834.207	42.23
834.38	42.2
834.553	42.71
834.727	42.92
834.9	42.58
835.073	42.42
835.246	43.1
835.419	43.21
835.593	42.49
835.766	43.08
835.939	44.03
836.112	44.83
836.285	45.25
836.458	45.11
836.631	45.38
836.804	46.26
836.977	46.64
837.15	47.57
837.323	46.59
837.496	48.76
837.669	49.31
837.842	49.38
838.015	47.66
838.188	47.59
838.361	47.71
838.533	48.04
838.706	48.96
838.879	47.67
839.052	45.95
839.225	46.44
839.398	45.8
839.57	45.99
839.743	44.58
839.916	45.74
840.088	45.22
840.261	45.3
840.434	45.12
840.607	44.72
840.779	45.1
840.952	46.07
841.124	48.12
841.297	47.5
841.47	45.59
841.642	45.88
841.815	45.6
841.987	47.42
842.16	46.61
842.332	45.04
842.505	45.87
842.677	46.9
842.85	46.5
843.022	43.11
843.194	43.67
843.367	45.33
843.539	48.36
843.712	48.51
843.884	51.3
844.056	52.67
844.229	55.69
844.401	53.5
844.573	52.34
844.745	51.74
844.918	57.64
845.09	58.84
845.262	57.52
845.434	55.53
845.606	57.45
845.779	52.13
845.951	54.54
846.123	54.48
846.295	54.01
846.467	53.2
846.639	54.09
846.811	51.47
846.983	49.67
847.155	52.63
847.327	53.23
847.499	53.74
847.671	55.6
847.843	53.14
848.015	53.86
848.187	54.18
848.359	53.26
848.531	52.97
848.703	53.02
848.875	54.42
849.047	51.33
849.218	52.04
849.39	51.18
849.562	51.11
849.734	46.62
849.905	48.45
850.077	50.95
850.249	56.04
850.421	53.83
850.592	55.95
850.764	57.06
850.936	56.63
851.107	54.18
851.279	50.77
851.451	52.03
851.622	55.87
851.794	49.16
851.965	43.91
852.137	41.56
852.308	42.55
852.48	42.8
852.651	43.91
852.823	47.03
852.994	53.3
853.166	56.85
853.337	54.9
853.509	57.59
853.68	62.7
853.851	72.87
854.023	73.53
854.194	75.39
854.365	72.58
854.537	73.07
854.708	73.29
854.879	65.44
855.05	66.47
855.222	66.94
855.393	65.66
855.564	65.54
855.735	56.16
855.906	53.15
856.078	53.26
856.249	55.64
856.42	50.66
856.591	54.58
856.762	57.7
856.933	53.42
857.104	51.55
857.275	51.9
857.446	49.8
857.617	52.96
857.788	50.76
857.959	52.13
858.13	50.83
858.301	53.22
858.472	47.04
858.643	47.76
858.814	50.24
858.985	52.58
859.155	51.85
859.326	51.86
859.497	51.11
859.668	54.55
859.839	49.99
860.009	48.69
860.18	46.77
860.351	45.43
860.522	43
860.692	45.45
860.863	43.95
861.034	41.78
861.204	41.71
861.375	42.09
861.546	39.22
861.716	41.27
861.887	40.74
862.057	41.56
862.228	45.66
862.398	48.39
862.569	48.06
862.739	50.71
862.91	52.18
863.08	53.42
863.251	55.06
863.421	59.43
863.592	59.05
863.762	59.93
863.932	60.79
864.103	63.86
864.273	60.12
864.443	59.39
864.614	60.29
864.784	56.24
864.954	57.7
865.125	57.02
865.295	56.44
865.465	55.29
865.635	59.87
865.805	59
865.976	56.06
866.146	55.38
866.316	58.77
866.486	54.56
866.656	58.92
866.826	56.25
866.996	53.28
867.166	53.08
867.336	55.29
867.506	54.74
867.676	50.47
867.846	45.07
868.016	49.57
868.186	42.75
868.356	43.52
868.526	40.99
868.696	39.68
868.866	39.8
869.036	39.18
869.206	37.58
869.376	36.68
869.545	40.54
869.715	45.97
869.885	43.3
870.055	43.2
870.224	46.22
870.394	48.19
870.564	53.47
870.734	57.5
870.903	53.95
871.073	55.42
871.243	57.15
871.412	57.18
871.582	56.34
871.751	56.82
871.921	56.91
872.091	56.63
872.26	55.82
872.43	54.12
872.599	50.92
872.769	51.24
872.938	48.11
873.108	48.4
873.277	48.15
873.446	48.93
873.616	49.6
873.785	48.65
873.955	46.08
874.124	43.01
874.293	42.33
874.463	40.22
874.632	45.24
874.801	51.23
874.971	52.74
875.14	50.53
875.309	51.32
875.478	51
875.647	51.58
875.817	52.71
875.986	55.09
876.155	52.75
876.324	52.32
876.493	53.31
876.662	51.05
876.831	45.66
877	48.06
877.17	47.13
877.339	46.51
877.508	52.5
877.677	50.66
877.846	51.85
878.015	52.26
878.184	54.52
878.352	52.28
878.521	52.12
878.69	53.34
878.859	49.93
879.028	49.72
879.197	46.55
879.366	41.88
879.534	42.86
879.703	39.79
879.872	39.53
880.041	40.61
880.21	39.48
880.378	37.94
880.547	36.97
880.716	38.14
880.884	37.41
881.053	37.63
881.222	37.95
881.39	37.83
881.559	39.06
881.727	38.59
881.896	37.32
882.065	36.91
882.233	37.64
882.402	37.9
882.57	37.48
882.739	37.26
882.907	37.65
883.076	38.08
883.244	37.42
883.412	36.8
883.581	37
883.749	37.28
883.918	37.82
884.086	36.85
884.254	36.62
884.423	36.39
884.591	36.36
884.759	35.37
884.927	34.74
885.096	34.24
885.264	34.64
885.432	34.94
885.6	34.83
885.769	35.12
885.937	35.8
886.105	36.99
886.273	39.29
886.441	42.24
886.609	47.48
886.777	48.56
886.945	52.86
887.113	55.89
887.281	55.65
887.449	57.65
887.617	58.16
887.785	59.64
887.953	57.47
888.121	58.31
888.289	55.72
888.457	52.49
888.625	52.12
888.793	55.06
888.961	49.86
889.129	51.49
889.296	56.1
889.464	56.33
889.632	57.94
889.8	63.83
889.967	60.47
890.135	63.62
