Data from 2938840__Reflection_03.txt Node
Date: Wed Mar 11 15:44:45 EDT 2015
User: robert
Spectrometer: USB4E03002
Autoset integration time: false
Trigger mode: 4
Integration Time (sec): 1.000000E-1
Scans to average: 10
Electric dark correction enabled: false
Nonlinearity correction enabled: false
Boxcar width: 5
Stray light correction enabled: false
XAxis mode: Wavelengths
Stop averaging: false
Number of Pixels in Spectrum: 3648
>>>>>Begin Spectral Data<<<<<
177.575	1373.33
177.794	422.67
178.014	547.89
178.233	562.5
178.452	1141.94
178.672	1343.75
178.891	1350
179.11	-3500
179.33	-108.11
179.549	-145.16
179.768	-282.78
179.987	-298.9
180.207	-437.18
180.426	-237.9
180.645	-340.78
180.864	-418.84
181.084	-314.63
181.303	-113.48
181.522	-178.8
181.741	-892.5
181.96	448.65
182.179	621.28
182.398	474
182.618	9.52
182.837	-22.77
183.056	-47.62
183.275	-5.56
183.494	44.12
183.713	-67.16
183.932	78.64
184.151	21.8
184.37	425
184.589	30
184.808	-68
185.027	-23.19
185.246	-65
185.465	-100
185.684	34.33
185.903	147.06
186.122	225.26
186.341	159.02
186.56	109.74
186.779	208.46
186.998	231.62
187.216	235.12
187.435	223.27
187.654	327.75
187.873	202.98
188.092	145.59
188.311	136.69
188.53	90.41
188.748	133.67
188.967	279.37
189.186	-121.9
189.405	-34.94
189.623	-2.7
189.842	-29.69
190.061	80.77
190.28	93.71
190.498	75
190.717	57.59
190.936	52.79
191.154	52.16
191.373	77.9
191.592	-224.69
191.81	-208.93
192.029	-61.81
192.248	-51.68
192.466	-168.89
192.685	47.14
192.904	68.3
193.122	60.43
193.341	68.08
193.559	34.83
193.778	61.54
193.996	99.57
194.215	116.95
194.433	98.66
194.652	87.64
194.87	143.9
195.089	167.18
195.307	-600
195.526	71.43
195.744	26.09
195.963	-873.68
196.181	136.6
196.399	35.43
196.618	62.04
196.836	89.37
197.055	95.77
197.273	74.68
197.491	101.53
197.71	173.07
197.928	146.5
198.146	174.66
198.365	150.8
198.583	248.06
198.801	199.55
199.019	130.77
199.238	-186.55
199.456	-158.52
199.674	-756.6
199.892	269.01
200.111	147.45
200.329	151.46
200.547	96.45
200.765	81.46
200.983	57.94
201.202	79.39
201.42	115
201.638	100.79
201.856	116.25
202.074	125.47
202.292	187.2
202.51	263.9
202.728	306.69
202.946	610.49
203.165	722.31
203.383	548
203.601	693.66
203.819	374.39
204.037	313.65
204.255	770.53
204.473	262.31
204.691	245.42
204.909	115.23
205.127	90.11
205.345	74.94
205.562	68.44
205.78	65.86
205.998	75.65
206.216	77.01
206.434	72.36
206.652	58.36
206.87	98.88
207.088	103.05
207.306	153.15
207.523	218.41
207.741	344.81
207.959	-959.32
208.177	-218.78
208.395	-97.25
208.612	-52.3
208.83	-150
209.048	-214.79
209.266	-10.04
209.483	-31.96
209.701	-151.25
209.919	-68
210.136	-6.43
210.354	-151.43
210.572	20.27
210.79	37.07
211.007	148.13
211.225	115.13
211.442	96.32
211.66	120.25
211.878	121.71
212.095	584.04
212.313	488.77
212.53	569.57
212.748	513.36
212.966	370.19
213.183	284.15
213.401	214.84
213.618	264.07
213.836	273.89
214.053	207.79
214.271	188.8
214.488	60.44
214.705	47.04
214.923	64.34
215.14	73.92
215.358	58.61
215.575	35.12
215.793	36.37
216.01	48.5
216.227	30.03
216.445	18.79
216.662	19.22
216.879	5.56
217.097	20.23
217.314	23.77
217.531	31.52
217.749	40.92
217.966	46.43
218.183	49.05
218.4	51.17
218.618	48.18
218.835	48.5
219.052	44.84
219.269	45.2
219.487	33.82
219.704	17.87
219.921	18.36
220.138	23.15
220.355	20
220.572	24.49
220.79	19.75
221.007	24.32
221.224	27.61
221.441	17.08
221.658	26.44
221.875	23.23
222.092	26.23
222.309	17.19
222.526	5.47
222.743	5.25
222.96	2.32
223.177	3.75
223.394	2.86
223.611	-1.4
223.828	8.17
224.045	4.44
224.262	5.65
224.479	7.87
224.696	15.86
224.913	13.38
225.13	10.9
225.347	4.86
225.564	4.21
225.781	-1.09
225.997	3.67
226.214	3.59
226.431	3.3
226.648	3.86
226.865	4.19
227.082	2.1
227.298	4.06
227.515	5.18
227.732	6.38
227.949	5.48
228.165	5.66
228.382	4.25
228.599	4.7
228.816	4.61
229.032	4.09
229.249	3.72
229.466	3.53
229.682	3.21
229.899	3.07
230.116	2.51
230.332	2.16
230.549	1.87
230.765	1.99
230.982	-0.19
231.199	-0.84
231.415	-0.47
231.632	-1.86
231.848	-4.9
232.065	-4.85
232.281	-5.34
232.498	-7.33
232.714	-6.02
232.931	-4.75
233.147	-4.32
233.364	-1.85
233.58	-1.93
233.797	-1.41
234.013	0.49
234.23	3.37
234.446	2.95
234.662	1
234.879	2.33
235.095	2.76
235.312	1.25
235.528	1.93
235.744	2.28
235.961	2.89
236.177	2.63
236.393	3.1
236.61	3.11
236.826	4
237.042	6.42
237.258	7.48
237.475	4.85
237.691	4.92
237.907	2.71
238.123	2.48
238.339	2.58
238.556	2.63
238.772	2.21
238.988	3.63
239.204	3.12
239.42	1.52
239.636	1.29
239.853	2.45
240.069	2.81
240.285	4.08
240.501	3.55
240.717	4.23
240.933	4.18
241.149	3.49
241.365	3.71
241.581	4.33
241.797	5.16
242.013	5.53
242.229	5.44
242.445	5.96
242.661	5.82
242.877	6.41
243.093	5.39
243.309	5.5
243.525	5.81
243.741	5.72
243.957	5.44
244.173	5.47
244.388	5.9
244.604	6.32
244.82	5.8
245.036	5.7
245.252	5.28
245.468	5.74
245.683	5.71
245.899	6.03
246.115	5.8
246.331	5.62
246.547	5.74
246.762	5.37
246.978	5.1
247.194	5.05
247.409	5.02
247.625	5
247.841	5.21
248.057	5.28
248.272	4.95
248.488	4.82
248.703	4.8
248.919	4.65
249.135	4.11
249.35	4.17
249.566	4.72
249.782	4.8
249.997	4.21
250.213	4.17
250.428	4.18
250.644	4.19
250.859	4.32
251.075	3.92
251.29	3.42
251.506	4.13
251.721	3.98
251.937	3.43
252.152	3.48
252.368	3.78
252.583	3.57
252.798	3.12
253.014	3.17
253.229	2.41
253.445	2.63
253.66	2.75
253.875	2.6
254.091	2.95
254.306	2.92
254.521	2.48
254.737	2.08
254.952	1.23
255.167	1.45
255.383	2.27
255.598	2.52
255.813	2.9
256.028	3.42
256.244	2.92
256.459	2.5
256.674	2.49
256.889	3.07
257.104	3
257.32	3.56
257.535	3.36
257.75	2.99
257.965	3.44
258.18	3.48
258.395	3.59
258.61	3.84
258.826	4.21
259.041	4.15
259.256	4.33
259.471	4.61
259.686	4.68
259.901	4.47
260.116	4.33
260.331	4.27
260.546	4.29
260.761	3.97
260.976	4.01
261.191	3.83
261.406	3.91
261.621	3.54
261.836	3.36
262.05	3.32
262.265	3.67
262.48	3.7
262.695	3.39
262.91	2.84
263.125	2.8
263.34	2.51
263.555	2.58
263.769	2.49
263.984	2.76
264.199	2.56
264.414	2.65
264.629	2.47
264.843	2.64
265.058	3.34
265.273	3.6
265.488	3.83
265.702	3.82
265.917	4.1
266.132	4.13
266.346	3.96
266.561	4.34
266.776	4.23
266.99	3.87
267.205	3.79
267.42	3.36
267.634	3.33
267.849	3.32
268.063	3.45
268.278	2.95
268.492	2.55
268.707	2.45
268.922	1.93
269.136	1.58
269.351	2.26
269.565	2.34
269.78	2.38
269.994	2.21
270.209	2.58
270.423	2.18
270.637	2.41
270.852	2.85
271.066	2.8
271.281	2.96
271.495	3.26
271.709	3.24
271.924	3.18
272.138	3.49
272.353	3.58
272.567	3.45
272.781	3.83
272.996	3.62
273.21	3.49
273.424	3.48
273.638	3.19
273.853	3
274.067	2.84
274.281	2.96
274.495	2.73
274.71	2.37
274.924	2.06
275.138	1.85
275.352	1.85
275.566	1.8
275.781	2.13
275.995	2.76
276.209	2.97
276.423	3.31
276.637	3.39
276.851	3.21
277.065	3.96
277.279	3.74
277.493	3.77
277.707	3.82
277.921	3.87
278.135	3.57
278.349	3.59
278.563	3.33
278.777	2.39
278.991	2.61
279.205	2.75
279.419	2.73
279.633	3.14
279.847	3.17
280.061	3.33
280.275	3.25
280.489	3.51
280.703	3.03
280.917	2.93
281.131	3.3
281.344	3.28
281.558	3.22
281.772	3.36
281.986	3.74
282.2	3.69
282.414	3.47
282.627	3.8
282.841	3.67
283.055	3.8
283.269	4.21
283.482	4.07
283.696	3.85
283.91	3.81
284.123	3.54
284.337	3.29
284.551	3.29
284.764	3.64
284.978	3.29
285.192	3.48
285.405	3.54
285.619	3.45
285.833	3.29
286.046	3.24
286.26	3.53
286.473	3.56
286.687	3.56
286.9	3.66
287.114	3.68
287.327	3.83
287.541	3.53
287.754	3.85
287.968	3.79
288.181	3.94
288.395	4.03
288.608	3.72
288.822	3.4
289.035	3.2
289.248	3.28
289.462	2.97
289.675	3.04
289.889	3.61
290.102	3.48
290.315	3.59
290.529	4.24
290.742	4.1
290.955	4.44
291.169	4.59
291.382	4.95
291.595	5.14
291.808	5.45
292.022	5.39
292.235	5.13
292.448	5.19
292.661	5.07
292.875	4.98
293.088	5.08
293.301	5.29
293.514	5.51
293.727	5.31
293.94	5.12
294.153	4.91
294.367	4.74
294.58	4.43
294.793	4.26
295.006	4.05
295.219	3.77
295.432	3.72
295.645	3.33
295.858	3.29
296.071	3.56
296.284	3.59
296.497	3.74
296.71	3.87
296.923	4.07
297.136	4.03
297.349	4.21
297.562	4.22
297.775	4.45
297.988	4.74
298.201	5
298.414	4.94
298.626	4.86
298.839	4.85
299.052	4.9
299.265	4.83
299.478	4.87
299.691	4.95
299.903	5.05
300.116	5.16
300.329	5.11
300.542	4.91
300.755	5.02
300.967	5.03
301.18	4.96
301.393	4.97
301.605	4.98
301.818	4.96
302.031	4.54
302.243	4.66
302.456	4.35
302.669	4.32
302.881	4.65
303.094	4.41
303.307	4.77
303.519	4.78
303.732	5.08
303.944	5.28
304.157	6.1
304.37	6.43
304.582	6.47
304.795	6.64
305.007	6.52
305.22	6.39
305.432	6.39
305.645	6.4
305.857	6.68
306.069	6.56
306.282	6.49
306.494	5.74
306.707	6.01
306.919	6.13
307.132	6.1
307.344	6.34
307.556	6.52
307.769	6.74
307.981	6.44
308.193	6.53
308.406	6.74
308.618	6.91
308.83	7.31
309.043	7.03
309.255	6.59
309.467	6.76
309.679	6.54
309.892	6.24
310.104	6.03
310.316	6.41
310.528	6.26
310.74	6.11
310.953	5.95
311.165	5.71
311.377	6.12
311.589	6.17
311.801	6.25
312.013	6.29
312.225	6.45
312.437	6.56
312.649	6.51
312.862	6.57
313.074	6.57
313.286	6.82
313.498	6.81
313.71	6.68
313.922	6.89
314.134	6.51
314.346	6.73
314.558	6.52
314.77	6.6
314.982	6.98
315.193	7.2
315.405	6.99
315.617	6.71
315.829	6.9
316.041	6.4
316.253	6.35
316.465	6.93
316.677	6.91
316.888	7.05
317.1	7.1
317.312	6.38
317.524	6.13
317.736	6.23
317.947	6.48
318.159	6.5
318.371	6.87
318.583	6.84
318.794	6.59
319.006	6.56
319.218	6.78
319.43	6.9
319.641	7.3
319.853	7.41
320.064	7.4
320.276	7.27
320.488	7.24
320.699	7.28
320.911	7.64
321.123	7.6
321.334	7.62
321.546	7.78
321.757	7.77
321.969	7.56
322.18	8.02
322.392	8.38
322.603	8.75
322.815	9.04
323.026	9.29
323.238	9.46
323.449	9.46
323.661	9.44
323.872	9.18
324.083	9.32
324.295	9.44
324.506	9.14
324.718	8.96
324.929	8.9
325.14	9.09
325.352	8.82
325.563	9.03
325.774	9.25
325.986	9.68
326.197	9.86
326.408	10.05
326.62	10.21
326.831	10.44
327.042	10.95
327.253	10.92
327.464	10.74
327.676	11.18
327.887	10.91
328.098	11.15
328.309	11.01
328.52	11.64
328.732	11.82
328.943	11.95
329.154	12.08
329.365	12.08
329.576	12.49
329.787	12.74
329.998	12.84
330.209	13.2
330.42	13.28
330.631	13.13
330.842	12.52
331.053	12.32
331.264	12.48
331.475	12.61
331.686	12.74
331.897	12.52
332.108	12.56
332.319	12.51
332.53	12.53
332.741	12.51
332.952	12.7
333.163	12.91
333.374	13.18
333.585	13.25
333.795	12.96
334.006	13.08
334.217	12.9
334.428	12.76
334.639	12.71
334.849	12.71
335.06	12.67
335.271	12.78
335.482	12.96
335.692	12.76
335.903	13.11
336.114	13.42
336.325	13.11
336.535	13.49
336.746	13.94
336.957	13.96
337.167	13.86
337.378	14.07
337.589	14.12
337.799	13.91
338.01	14.01
338.22	13.22
338.431	12.85
338.642	12.95
338.852	12.67
339.063	12.07
339.273	12.05
339.484	11.94
339.694	11.8
339.905	11.81
340.115	11.79
340.326	11.97
340.536	12.59
340.746	12.75
340.957	12.89
341.167	13.33
341.378	13.58
341.588	14
341.799	14.31
342.009	14.35
342.219	14.24
342.43	14.34
342.64	14.08
342.85	13.84
343.061	14.01
343.271	13.93
343.481	13.77
343.691	13.66
343.902	13.35
344.112	13.02
344.322	12.96
344.532	12.88
344.743	12.71
344.953	12.75
345.163	12.73
345.373	12.57
345.583	12.53
345.793	12.6
346.004	12.83
346.214	12.71
346.424	12.78
346.634	12.87
346.844	12.94
347.054	13.14
347.264	12.96
347.474	12.92
347.684	12.85
347.894	12.57
348.104	12.66
348.314	12.5
348.524	12.66
348.734	12.65
348.944	12.44
349.154	12.51
349.364	12.61
349.574	12.56
349.784	12.54
349.994	12.37
350.204	12.59
350.413	12.39
350.623	12.45
350.833	12.17
351.043	12.04
351.253	12
351.463	12.08
351.672	12.13
351.882	12.43
352.092	12.54
352.302	12.56
352.511	12.71
352.721	12.71
352.931	12.71
353.141	12.85
353.35	12.85
353.56	13.04
353.77	13.02
353.979	12.73
354.189	12.72
354.399	12.8
354.608	12.98
354.818	13
355.027	13.1
355.237	13
355.447	12.99
355.656	12.95
355.866	12.76
356.075	12.87
356.285	13.22
356.494	13.11
356.704	13.08
356.913	12.86
357.123	12.64
357.332	12.56
357.542	12.38
357.751	12.53
357.96	12.58
358.17	12.41
358.379	12.3
358.589	11.69
358.798	11.84
359.007	11.75
359.217	11.86
359.426	11.93
359.635	11.98
359.845	12.03
360.054	11.89
360.263	11.73
360.472	11.71
360.682	11.67
360.891	11.94
361.1	11.79
361.309	11.74
361.519	11.74
361.728	11.57
361.937	11.51
362.146	11.73
362.355	11.84
362.564	11.93
362.774	12.24
362.983	12.14
363.192	12.27
363.401	12.2
363.61	12.35
363.819	12.37
364.028	12.52
364.237	12.34
364.446	11.98
364.655	11.9
364.864	12.07
365.073	11.64
365.282	11.46
365.491	11.24
365.7	11.13
365.909	11.04
366.118	11.09
366.327	11.1
366.536	11.16
366.745	11.24
366.954	11.11
367.162	10.9
367.371	11.14
367.58	11.37
367.789	11.2
367.998	11.42
368.207	11.52
368.415	11.46
368.624	11.02
368.833	11.06
369.042	11.05
369.25	10.93
369.459	11.01
369.668	10.85
369.877	10.63
370.085	10.8
370.294	10.74
370.503	10.8
370.711	10.63
370.92	10.94
371.129	10.72
371.337	10.57
371.546	10.53
371.754	10.31
371.963	10.17
372.171	10.26
372.38	10.21
372.589	10.1
372.797	9.86
373.006	9.83
373.214	9.82
373.423	9.68
373.631	9.54
373.84	9.47
374.048	9.42
374.256	9.39
374.465	9.36
374.673	9.23
374.882	9.31
375.09	9.1
375.298	9.21
375.507	9.14
375.715	9.35
375.923	9.24
376.132	9.25
376.34	9.3
376.548	9.24
376.757	9.04
376.965	9.03
377.173	8.86
377.381	8.97
377.59	8.83
377.798	8.75
378.006	8.5
378.214	8.85
378.423	8.87
378.631	8.84
378.839	8.94
379.047	9.07
379.255	8.97
379.463	8.83
379.671	8.63
379.879	8.47
380.088	8.66
380.296	8.67
380.504	8.31
380.712	8.2
380.92	8.12
381.128	8.04
381.336	7.95
381.544	7.87
381.752	8.19
381.96	8.2
382.168	8.23
382.376	8.2
382.584	8.21
382.791	8.12
382.999	8.13
383.207	8.12
383.415	8.07
383.623	7.93
383.831	7.89
384.039	7.52
384.247	7.49
384.454	7.65
384.662	7.2
384.87	7.19
385.078	7.19
385.285	7.13
385.493	7.09
385.701	7.02
385.909	6.97
386.116	7.01
386.324	7.08
386.532	6.96
386.739	6.72
386.947	6.78
387.155	6.81
387.362	6.93
387.57	6.79
387.778	6.75
387.985	6.69
388.193	6.77
388.4	6.52
388.608	6.3
388.816	6.21
389.023	6.17
389.231	6.35
389.438	6.23
389.646	6.3
389.853	6.28
390.061	6.17
390.268	6.18
390.475	6.06
390.683	6.15
390.89	6.29
391.098	6.25
391.305	6.39
391.512	6.35
391.72	6.37
391.927	6.15
392.135	6.25
392.342	6.27
392.549	6.25
392.756	6.22
392.964	6.29
393.171	6.21
393.378	6.21
393.586	5.99
393.793	5.79
394	5.69
394.207	5.81
394.414	5.7
394.622	5.62
394.829	5.64
395.036	5.54
395.243	5.39
395.45	5.32
395.657	5.17
395.864	5.18
396.072	5.17
396.279	5.17
396.486	5.06
396.693	5.04
396.9	5.07
397.107	4.97
397.314	5.07
397.521	5
397.728	4.99
397.935	5.07
398.142	4.85
398.349	4.84
398.556	4.87
398.763	4.96
398.97	4.91
399.177	4.84
399.383	4.83
399.59	4.55
399.797	4.62
400.004	4.65
400.211	4.75
400.418	4.97
400.625	4.82
400.831	4.77
401.038	4.63
401.245	4.54
401.452	4.54
401.658	4.47
401.865	4.68
402.072	4.65
402.279	4.63
402.485	4.46
402.692	4.47
402.899	4.59
403.105	4.44
403.312	4.31
403.519	4.4
403.725	4.25
403.932	4.28
404.138	4.25
404.345	4.34
404.552	4.33
404.758	4.34
404.965	4.25
405.171	4.24
405.378	4.47
405.584	4.6
405.791	4.47
405.997	4.58
406.204	4.51
406.41	4.38
406.617	4.28
406.823	4.16
407.029	4.16
407.236	4
407.442	3.88
407.649	3.58
407.855	3.48
408.061	3.39
408.268	3.39
408.474	3.34
408.68	3.29
408.887	3.15
409.093	3.15
409.299	3.14
409.505	3.36
409.712	3.38
409.918	3.57
410.124	3.68
410.33	3.87
410.537	3.85
410.743	3.83
410.949	3.84
411.155	3.89
411.361	3.89
411.567	3.8
411.773	3.74
411.98	4
412.186	3.96
412.392	3.81
412.598	3.67
412.804	3.6
413.01	3.54
413.216	3.72
413.422	3.74
413.628	3.71
413.834	3.85
414.04	3.68
414.246	3.51
414.452	3.57
414.658	3.57
414.864	3.65
415.07	3.64
415.275	3.73
415.481	3.73
415.687	3.84
415.893	3.88
416.099	3.85
416.305	4.01
416.511	3.95
416.716	3.83
416.922	3.92
417.128	3.91
417.334	3.95
417.539	3.91
417.745	3.85
417.951	3.74
418.157	3.76
418.362	3.72
418.568	3.58
418.774	3.63
418.979	3.66
419.185	3.53
419.391	3.52
419.596	3.5
419.802	3.52
420.008	3.55
420.213	3.23
420.419	3.23
420.624	3.29
420.83	3.4
421.035	3.39
421.241	3.42
421.446	3.4
421.652	3.4
421.857	3.4
422.063	3.32
422.268	3.27
422.474	3.61
422.679	3.57
422.885	3.6
423.09	3.49
423.295	3.46
423.501	3.41
423.706	3.5
423.911	3.48
424.117	3.46
424.322	3.56
424.527	3.59
424.733	3.55
424.938	3.65
425.143	3.55
425.349	3.61
425.554	3.61
425.759	3.61
425.964	3.61
426.169	3.65
426.375	3.59
426.58	3.59
426.785	3.57
426.99	3.58
427.195	3.47
427.4	3.51
427.605	3.54
427.811	3.52
428.016	3.53
428.221	3.4
428.426	3.28
428.631	3.38
428.836	3.31
429.041	3.18
429.246	3.08
429.451	3.1
429.656	3.09
429.861	3
430.066	3.08
430.271	3.04
430.476	3.05
430.681	3.13
430.886	3.04
431.09	3.04
431.295	3.08
431.5	3.19
431.705	3.16
431.91	3.11
432.115	3.15
432.32	3.08
432.524	3.02
432.729	3.04
432.934	3.12
433.139	3.18
433.343	3.21
433.548	3.18
433.753	3.19
433.958	3.23
434.162	3.35
434.367	3.35
434.572	3.3
434.776	3.35
434.981	3.34
435.186	3.2
435.39	3.18
435.595	3.18
435.799	3.3
436.004	3.26
436.209	3.24
436.413	3.16
436.618	3.03
436.822	3.04
437.027	3.13
437.231	3.07
437.436	3.03
437.64	3.1
437.845	3.07
438.049	3.13
438.253	3.12
438.458	3.15
438.662	3.06
438.867	3.11
439.071	3.14
439.275	3.11
439.48	3.23
439.684	3.38
439.888	3.37
440.093	3.45
440.297	3.4
440.501	3.43
440.706	3.44
440.91	3.48
441.114	3.54
441.318	3.53
441.523	3.54
441.727	3.45
441.931	3.34
442.135	3.29
442.339	3.21
442.543	3.14
442.748	3.12
442.952	3.08
443.156	3.08
443.36	3.09
443.564	3.12
443.768	3.07
443.972	3.2
444.176	3.29
444.38	3.31
444.584	3.32
444.788	3.36
444.992	3.37
445.196	3.36
445.4	3.36
445.604	3.34
445.808	3.37
446.012	3.46
446.216	3.46
446.42	3.35
446.624	3.31
446.828	3.29
447.032	3.23
447.235	3.18
447.439	3.19
447.643	3.18
447.847	3.11
448.051	3.1
448.254	2.96
448.458	2.88
448.662	2.94
448.866	2.96
449.069	2.94
449.273	2.98
449.477	3.03
449.681	3.02
449.884	3
450.088	2.99
450.292	3.08
450.495	3.03
450.699	3.08
450.902	3.06
451.106	3.09
451.31	3.15
451.513	3.09
451.717	2.95
451.92	2.91
452.124	2.99
452.327	3.03
452.531	2.96
452.734	2.99
452.938	2.9
453.141	2.92
453.345	2.89
453.548	2.9
453.752	2.91
453.955	2.94
454.158	3
454.362	2.95
454.565	2.95
454.769	2.93
454.972	2.95
455.175	2.93
455.379	2.94
455.582	2.87
455.785	2.77
455.988	2.85
456.192	2.98
456.395	2.99
456.598	2.86
456.801	2.86
457.005	2.83
457.208	2.82
457.411	2.99
457.614	2.88
457.817	2.85
458.021	2.93
458.224	2.88
458.427	2.83
458.63	2.86
458.833	2.91
459.036	2.93
459.239	2.93
459.442	2.96
459.645	2.89
459.848	3.01
460.051	3.04
460.254	3.02
460.457	3.03
460.66	3.04
460.863	2.97
461.066	3.02
461.269	3
461.472	2.99
461.675	2.97
461.878	2.98
462.081	2.92
462.284	2.92
462.486	2.96
462.689	3.01
462.892	3.09
463.095	3.1
463.298	3.06
463.5	3.14
463.703	3.14
463.906	3.18
464.109	3.08
464.311	3.16
464.514	3.21
464.717	3.19
464.92	3.09
465.122	3.05
465.325	3.1
465.528	3.16
465.73	3.07
465.933	3.1
466.135	3.03
466.338	3.2
466.541	3.08
466.743	3.03
466.946	3.05
467.148	3.13
467.351	3.06
467.553	3.04
467.756	3
467.958	2.98
468.161	2.99
468.363	3.1
468.566	3.03
468.768	3.01
468.971	3.15
469.173	3.22
469.375	3.21
469.578	3.22
469.78	3.27
469.983	3.17
470.185	3.23
470.387	3.2
470.59	3.15
470.792	3.13
470.994	3.21
471.196	3.07
471.399	2.99
471.601	3.01
471.803	3.01
472.005	3.03
472.208	3.14
472.41	3.17
472.612	3.13
472.814	3.05
473.016	3.03
473.218	3.01
473.421	3.03
473.623	3.11
473.825	3.12
474.027	3.19
474.229	3.13
474.431	3.14
474.633	3.16
474.835	3.15
475.037	3.18
475.239	3.25
475.441	3.3
475.643	3.28
475.845	3.12
476.047	3.12
476.249	3.06
476.451	3.06
476.653	3.1
476.855	3.11
477.057	3.18
477.258	3.18
477.46	3.1
477.662	3.05
477.864	3.13
478.066	3.24
478.268	3.31
478.469	3.3
478.671	3.38
478.873	3.36
479.075	3.34
479.276	3.29
479.478	3.36
479.68	3.4
479.882	3.49
480.083	3.42
480.285	3.36
480.487	3.38
480.688	3.35
480.89	3.29
481.091	3.28
481.293	3.28
481.495	3.36
481.696	3.29
481.898	3.31
482.099	3.24
482.301	3.25
482.502	3.24
482.704	3.21
482.905	3.22
483.107	3.24
483.308	3.26
483.51	3.25
483.711	3.2
483.913	3.22
484.114	3.2
484.315	3.21
484.517	3.22
484.718	3.23
484.92	3.22
485.121	3.22
485.322	3.19
485.524	3.19
485.725	3.19
485.926	3.19
486.127	3.18
486.329	3.2
486.53	3.21
486.731	3.19
486.932	3.22
487.134	3.21
487.335	3.23
487.536	3.21
487.737	3.2
487.938	3.19
488.139	3.23
488.341	3.23
488.542	3.21
488.743	3.22
488.944	3.26
489.145	3.26
489.346	3.26
489.547	3.3
489.748	3.31
489.949	3.29
490.15	3.31
490.351	3.31
490.552	3.31
490.753	3.34
490.954	3.32
491.155	3.34
491.356	3.35
491.557	3.38
491.758	3.37
491.959	3.37
492.159	3.39
492.36	3.41
492.561	3.41
492.762	3.42
492.963	3.42
493.164	3.46
493.364	3.43
493.565	3.37
493.766	3.36
493.967	3.4
494.167	3.48
494.368	3.52
494.569	3.5
494.769	3.57
494.97	3.59
495.171	3.6
495.371	3.6
495.572	3.65
495.773	3.75
495.973	3.76
496.174	3.69
496.375	3.65
496.575	3.63
496.776	3.69
496.976	3.65
497.177	3.72
497.377	3.68
497.578	3.7
497.778	3.73
497.979	3.7
498.179	3.73
498.38	3.82
498.58	3.8
498.78	3.81
498.981	3.79
499.181	3.79
499.382	3.79
499.582	3.83
499.782	3.82
499.983	3.9
500.183	3.99
500.383	4.05
500.584	3.99
500.784	4.11
500.984	4.23
501.184	4.21
501.385	4.22
501.585	4.12
501.785	4.14
501.985	4.19
502.185	4.17
502.386	4.12
502.586	4.1
502.786	4.14
502.986	4.21
503.186	4.23
503.386	4.3
503.586	4.38
503.786	4.57
503.987	4.66
504.187	4.67
504.387	4.67
504.587	4.73
504.787	4.81
504.987	4.85
505.187	4.83
505.387	4.85
505.587	4.92
505.786	4.93
505.986	4.96
506.186	4.99
506.386	5.03
506.586	5.04
506.786	5.16
506.986	5.22
507.186	5.18
507.386	5.24
507.585	5.28
507.785	5.39
507.985	5.45
508.185	5.42
508.384	5.49
508.584	5.54
508.784	5.64
508.984	5.66
509.183	5.62
509.383	5.8
509.583	5.89
509.782	5.96
509.982	5.98
510.182	6.01
510.381	6.08
510.581	6.15
510.781	6.22
510.98	6.25
511.18	6.32
511.379	6.39
511.579	6.45
511.778	6.46
511.978	6.48
512.177	6.55
512.377	6.61
512.576	6.72
512.776	6.76
512.975	6.84
513.175	6.92
513.374	7.03
513.573	7.17
513.773	7.31
513.972	7.44
514.172	7.61
514.371	7.67
514.57	7.82
514.77	7.88
514.969	7.98
515.168	8.06
515.367	8.2
515.567	8.25
515.766	8.38
515.965	8.33
516.164	8.47
516.364	8.62
516.563	8.76
516.762	8.93
516.961	9.05
517.16	9.17
517.359	9.3
517.559	9.39
517.758	9.45
517.957	9.48
518.156	9.6
518.355	9.65
518.554	9.63
518.753	9.72
518.952	9.74
519.151	9.8
519.35	9.93
519.549	9.99
519.748	10.11
519.947	10.23
520.146	10.35
520.345	10.46
520.544	10.53
520.743	10.68
520.942	10.73
521.141	10.83
521.339	10.93
521.538	10.96
521.737	11.06
521.936	11.17
522.135	11.33
522.333	11.38
522.532	11.55
522.731	11.75
522.93	11.85
523.129	12.05
523.327	12.22
523.526	12.39
523.725	12.56
523.923	12.73
524.122	12.77
524.321	12.85
524.519	13.05
524.718	13.13
524.917	13.19
525.115	13.28
525.314	13.37
525.512	13.49
525.711	13.63
525.909	13.71
526.108	13.82
526.306	14.04
526.505	14.17
526.703	14.28
526.902	14.42
527.1	14.53
527.299	14.68
527.497	14.81
527.696	14.9
527.894	14.98
528.092	15.05
528.291	15.11
528.489	15.14
528.688	15.18
528.886	15.29
529.084	15.34
529.283	15.4
529.481	15.46
529.679	15.51
529.877	15.57
530.076	15.64
530.274	15.75
530.472	15.87
530.67	15.99
530.869	16.14
531.067	16.24
531.265	16.42
531.463	16.56
531.661	16.72
531.859	16.85
532.057	16.99
532.255	17.08
532.454	17.16
532.652	17.26
532.85	17.38
533.048	17.42
533.246	17.48
533.444	17.51
533.642	17.57
533.84	17.61
534.038	17.7
534.236	17.76
534.434	17.85
534.632	17.93
534.83	17.98
535.027	18.05
535.225	18.15
535.423	18.22
535.621	18.3
535.819	18.4
536.017	18.55
536.215	18.63
536.412	18.71
536.61	18.8
536.808	18.87
537.006	19.01
537.203	19.07
537.401	19.2
537.599	19.29
537.797	19.37
537.994	19.46
538.192	19.44
538.39	19.55
538.587	19.64
538.785	19.77
538.983	19.96
539.18	20.11
539.378	20.31
539.575	20.44
539.773	20.6
539.97	20.79
540.168	20.9
540.366	21.09
540.563	21.18
540.761	21.26
540.958	21.35
541.155	21.43
541.353	21.47
541.55	21.51
541.748	21.54
541.945	21.65
542.143	21.7
542.34	21.79
542.537	21.82
542.735	21.92
542.932	22.05
543.129	22.1
543.327	22.14
543.524	22.33
543.721	22.49
543.919	22.69
544.116	22.79
544.313	22.98
544.51	23.18
544.708	23.42
544.905	23.63
545.102	23.8
545.299	24.03
545.496	24.21
545.693	24.31
545.891	24.38
546.088	24.36
546.285	24.27
546.482	24.28
546.679	24.24
546.876	24.11
547.073	24
547.27	23.95
547.467	23.81
547.664	23.81
547.861	23.68
548.058	23.6
548.255	23.6
548.452	23.7
548.649	23.67
548.846	23.59
549.043	23.74
549.24	23.74
549.437	23.64
549.633	23.62
549.83	23.56
550.027	23.55
550.224	23.52
550.421	23.46
550.618	23.38
550.814	23.29
551.011	23.3
551.208	23.2
551.405	23.27
551.601	23.32
551.798	23.35
551.995	23.33
552.191	23.32
552.388	23.32
552.585	23.37
552.781	23.39
552.978	23.37
553.175	23.42
553.371	23.43
553.568	23.35
553.764	23.36
553.961	23.4
554.157	23.46
554.354	23.47
554.55	23.61
554.747	23.5
554.943	23.54
555.14	23.64
555.336	23.69
555.533	23.82
555.729	23.82
555.926	23.83
556.122	23.88
556.318	23.89
556.515	23.95
556.711	24.02
556.907	24.16
557.104	24.2
557.3	24.21
557.496	24.18
557.693	24.07
557.889	24.14
558.085	24.2
558.281	24.18
558.478	24.21
558.674	24.34
558.87	24.21
559.066	24.24
559.262	24.2
559.459	24.23
559.655	24.17
559.851	24.33
560.047	24.41
560.243	24.43
560.439	24.43
560.635	24.47
560.831	24.32
561.027	24.4
561.223	24.37
561.419	24.5
561.615	24.57
561.811	24.74
562.007	24.61
562.203	24.6
562.399	24.66
562.595	24.71
562.791	24.72
562.987	24.86
563.183	24.82
563.379	24.95
563.575	24.82
563.771	24.75
563.966	24.79
564.162	24.94
564.358	24.97
564.554	24.98
564.75	25.03
564.945	25.03
565.141	24.97
565.337	24.94
565.533	24.95
565.728	25.07
565.924	25.19
566.12	25.13
566.315	25.1
566.511	25.1
566.707	25.05
566.902	25.08
567.098	25.11
567.293	25.14
567.489	25.3
567.684	25.33
567.88	25.38
568.076	25.32
568.271	25.43
568.467	25.43
568.662	25.43
568.858	25.54
569.053	25.57
569.248	25.56
569.444	25.5
569.639	25.49
569.835	25.55
570.03	25.5
570.225	25.55
570.421	25.49
570.616	25.48
570.812	25.52
571.007	25.48
571.202	25.53
571.397	25.54
571.593	25.64
571.788	25.56
571.983	25.46
572.178	25.53
572.374	25.64
572.569	25.58
572.764	25.71
572.959	25.74
573.154	25.78
573.35	25.69
573.545	25.79
573.74	25.75
573.935	25.82
574.13	25.89
574.325	25.91
574.52	25.88
574.715	26.05
574.91	26.05
575.105	26.07
575.3	26.19
575.495	26.3
575.69	26.24
575.885	26.32
576.08	26.45
576.275	26.53
576.47	26.67
576.665	26.6
576.86	26.57
577.055	26.74
577.25	26.84
577.444	26.82
577.639	26.86
577.834	27.1
578.029	27.15
578.224	27.12
578.418	27.13
578.613	27.01
578.808	26.97
579.003	27.09
579.197	26.99
579.392	26.96
579.587	26.99
579.781	27.04
579.976	26.87
580.171	26.9
580.365	26.85
580.56	26.96
580.755	26.92
580.949	27.08
581.144	26.98
581.338	26.97
581.533	27
581.727	27.07
581.922	26.97
582.116	27.19
582.311	27.15
582.505	27.3
582.7	27.32
582.894	27.6
583.089	27.66
583.283	27.8
583.478	27.74
583.672	27.72
583.866	27.6
584.061	27.65
584.255	27.51
584.449	27.71
584.644	27.61
584.838	27.47
585.032	27.32
585.226	27.21
585.421	27.29
585.615	27.55
585.809	27.63
586.003	27.78
586.198	27.85
586.392	27.92
586.586	27.99
586.78	28.16
586.974	28.29
587.168	28.54
587.363	28.62
587.557	28.53
587.751	28.32
587.945	28.24
588.139	28.25
588.333	28.3
588.527	28.29
588.721	28.24
588.915	28.23
589.109	28.18
589.303	27.85
589.497	27.9
589.691	27.82
589.885	27.85
590.079	27.95
590.273	27.89
590.466	27.85
590.66	27.69
590.854	27.64
591.048	27.58
591.242	27.64
591.436	27.85
591.629	28.08
591.823	28.3
592.017	28.42
592.211	28.4
592.404	28.4
592.598	28.28
592.792	28.5
592.986	28.62
593.179	28.64
593.373	28.59
593.567	28.5
593.76	28.23
593.954	28.16
594.147	27.98
594.341	28
594.535	28.03
594.728	28.09
594.922	28.05
595.115	27.86
595.309	27.84
595.502	27.74
595.696	27.75
595.889	27.85
596.083	27.84
596.276	27.99
596.47	28
596.663	28.04
596.856	28.11
597.05	28.12
597.243	28.13
597.437	28.19
597.63	28.29
597.823	28.35
598.017	28.36
598.21	28.38
598.403	28.34
598.596	28.35
598.79	28.28
598.983	28.24
599.176	28.35
599.369	28.42
599.563	28.34
599.756	28.41
599.949	28.37
600.142	28.33
600.335	28.37
600.528	28.32
600.722	28.31
600.915	28.37
601.108	28.41
601.301	28.22
601.494	28.31
601.687	28.29
601.88	28.25
602.073	28.26
602.266	28.35
602.459	28.31
602.652	28.31
602.845	28.29
603.038	28.12
603.231	28.05
603.424	28.19
603.617	28.08
603.809	28.17
604.002	28.22
604.195	28.15
604.388	28.08
604.581	28.14
604.774	28.26
604.966	28.25
605.159	28.38
605.352	28.53
605.545	28.56
605.737	28.59
605.93	28.6
606.123	28.64
606.316	28.74
606.508	28.84
606.701	28.8
606.894	28.75
607.086	28.89
607.279	29
607.471	29.07
607.664	29.02
607.857	29.41
608.049	29.54
608.242	29.87
608.434	30.4
608.627	30.91
608.819	31.55
609.012	32.25
609.204	32.98
609.397	33.87
609.589	34.66
609.782	35.61
609.974	36.44
610.166	37.5
610.359	38.41
610.551	39.27
610.743	39.88
610.936	40.42
611.128	40.77
611.32	41.06
611.513	41.24
611.705	41.37
611.897	41.27
612.09	40.95
612.282	40.53
612.474	40.12
612.666	39.62
612.858	39.27
613.051	38.88
613.243	38.39
613.435	38.07
613.627	37.55
613.819	37.13
614.011	36.76
614.203	36.35
614.395	36.02
614.588	35.55
614.78	35.01
614.972	34.64
615.164	34.31
615.356	34.01
615.548	33.65
615.74	33.27
615.932	32.93
616.124	32.67
616.315	32.46
616.507	32.18
616.699	31.9
616.891	31.51
617.083	31.12
617.275	30.81
617.467	30.62
617.659	30.23
617.85	30
618.042	29.89
618.234	29.64
618.426	29.61
618.618	29.53
618.809	29.35
619.001	29.44
619.193	29.53
619.384	29.48
619.576	29.61
619.768	29.59
619.959	29.67
620.151	29.65
620.343	29.83
620.534	29.77
620.726	29.69
620.917	29.81
621.109	29.9
621.301	30.01
621.492	30.03
621.684	29.99
621.875	30.18
622.067	30.23
622.258	30.26
622.45	30.25
622.641	30.34
622.832	30.54
623.024	30.65
623.215	30.76
623.407	30.67
623.598	30.8
623.789	30.92
623.981	30.84
624.172	30.95
624.363	30.78
624.555	30.85
624.746	30.76
624.937	30.59
625.129	30.53
625.32	30.44
625.511	30.43
625.702	30.34
625.893	30.21
626.085	30.33
626.276	30.31
626.467	30.44
626.658	30.32
626.849	30.32
627.04	30.42
627.231	30.38
627.422	30.35
627.614	30.33
627.805	30.37
627.996	30.45
628.187	30.42
628.378	30.36
628.569	30.4
628.76	30.43
628.951	30.53
629.142	30.62
629.332	30.77
629.523	30.85
629.714	30.95
629.905	31.09
630.096	31.12
630.287	31.25
630.478	31.43
630.669	31.39
630.859	31.4
631.05	31.35
631.241	31.29
631.432	31.14
631.623	31.13
631.813	30.98
632.004	30.66
632.195	30.4
632.385	30.27
632.576	30.23
632.767	30.06
632.957	29.94
633.148	29.86
633.339	29.58
633.529	29.54
633.72	29.51
633.91	29.42
634.101	29.48
634.292	29.62
634.482	29.5
634.673	29.35
634.863	29.38
635.054	29.49
635.244	29.55
635.435	29.54
635.625	29.6
635.815	29.43
636.006	29.53
636.196	29.55
636.387	29.48
636.577	29.65
636.767	29.65
636.958	29.77
637.148	29.65
637.338	29.62
637.529	29.87
637.719	29.76
637.909	29.76
638.099	29.63
638.29	29.52
638.48	29.44
638.67	29.34
638.86	29.22
639.05	29.12
639.241	29.08
639.431	29.13
639.621	29
639.811	29.21
640.001	29.52
640.191	29.51
640.381	29.61
640.571	29.74
640.761	29.48
640.951	29.5
641.141	29.45
641.331	29.63
641.521	29.51
641.711	29.56
641.901	29.52
642.091	29.46
642.281	29.6
642.471	29.5
642.661	29.65
642.851	30.05
643.041	30.23
643.231	30.4
643.42	30.29
643.61	30.23
643.8	30.18
643.99	29.88
644.18	29.66
644.369	29.66
644.559	29.87
644.749	29.72
644.939	29.59
645.128	29.56
645.318	29.51
645.508	29.73
645.697	29.72
645.887	29.69
646.076	29.84
646.266	29.95
646.456	29.87
646.645	29.79
646.835	29.96
647.024	29.93
647.214	29.91
647.403	30.24
647.593	30.28
647.782	30.49
647.972	30.53
648.161	30.67
648.351	30.72
648.54	30.87
648.73	31.07
648.919	31.09
649.108	31.15
649.298	31.19
649.487	30.91
649.677	31
649.866	30.89
650.055	30.98
650.244	30.84
650.434	30.74
650.623	30.81
650.812	30.74
651.002	30.48
651.191	30.65
651.38	30.84
651.569	30.94
651.758	30.73
651.947	31.06
652.137	31.1
652.326	31.28
652.515	31.54
652.704	31.55
652.893	31.35
653.082	31.5
653.271	31.3
653.46	31.11
653.649	30.96
653.838	30.77
654.027	30.52
654.216	30.35
654.405	30.28
654.594	29.99
654.783	29.78
654.972	29.83
655.161	29.76
655.35	29.68
655.539	29.65
655.728	29.72
655.916	29.97
656.105	29.87
656.294	29.81
656.483	29.83
656.672	29.93
656.86	30.07
657.049	30.21
657.238	30.27
657.427	30.24
657.615	30.3
657.804	30.35
657.993	30.19
658.181	30.17
658.37	30.26
658.559	30.29
658.747	30.3
658.936	30.28
659.125	30.24
659.313	30.23
659.502	30.22
659.69	30.2
659.879	30.13
660.067	30.21
660.256	30.29
660.444	30.39
660.633	30.25
660.821	30.12
661.01	30.15
661.198	30.2
661.387	30.25
661.575	30.43
661.763	30.28
661.952	30.2
662.14	30.17
662.328	30.14
662.517	30.16
662.705	30.39
662.893	30.6
663.082	30.62
663.27	30.56
663.458	30.57
663.646	30.58
663.834	30.84
664.023	30.97
664.211	30.91
664.399	30.83
664.587	30.69
664.775	30.63
664.963	30.69
665.152	30.62
665.34	30.71
665.528	30.73
665.716	30.62
665.904	30.52
666.092	30.35
666.28	30.54
666.468	30.55
666.656	30.58
666.844	30.47
667.032	30.16
667.22	30.37
667.408	30.4
667.596	30.13
667.784	29.98
667.971	29.91
668.159	29.74
668.347	29.66
668.535	29.71
668.723	29.9
668.911	30.07
669.098	30.1
669.286	29.7
669.474	29.74
669.662	30.02
669.849	30.24
670.037	30.4
670.225	30.75
670.413	30.73
670.6	30.86
670.788	30.78
670.976	30.64
671.163	30.71
671.351	30.91
671.538	30.6
671.726	30.39
671.913	30.2
672.101	30.05
672.289	30.01
672.476	29.81
672.664	29.96
672.851	30.08
673.039	30.22
673.226	30.41
673.413	30.52
673.601	30.67
673.788	30.74
673.976	30.86
674.163	30.88
674.35	31
674.538	31.04
674.725	30.99
674.912	30.91
675.1	30.73
675.287	30.79
675.474	30.8
675.662	30.76
675.849	30.89
676.036	31.02
676.223	31.12
676.411	31.1
676.598	31.27
676.785	31.09
676.972	31.02
677.159	31.02
677.346	30.59
677.533	30.56
677.721	30.4
677.908	30.25
678.095	30.14
678.282	30.33
678.469	30.24
678.656	30.28
678.843	30.44
679.03	30.4
679.217	30.74
679.404	31.08
679.591	31.01
679.778	31.22
679.964	31.18
680.151	31.35
680.338	31.24
680.525	31.36
680.712	31.27
680.899	31.28
681.086	31.45
681.272	31.16
681.459	31.08
681.646	31.07
681.833	31.01
682.02	31
682.206	30.91
682.393	30.92
682.58	30.61
682.766	30.54
682.953	30.28
683.14	30.2
683.326	30.28
683.513	30.2
683.7	30.25
683.886	30.08
684.073	30.29
684.259	30.19
684.446	30.11
684.632	30.57
684.819	30.83
685.005	30.93
685.192	30.64
685.378	30.84
685.565	31.09
685.751	31.02
685.938	31.25
686.124	31.36
686.31	31.39
686.497	31.56
686.683	31.33
686.87	31.25
687.056	31.32
687.242	31.24
687.429	30.93
687.615	30.81
687.801	30.65
687.987	30.8
688.174	30.92
688.36	31
688.546	30.7
688.732	30.66
688.918	30.64
689.105	30.63
689.291	30.91
689.477	31.14
689.663	31.12
689.849	31.43
690.035	31.13
690.221	30.97
690.407	30.76
690.593	30.79
690.779	30.94
690.965	30.81
691.151	30.5
691.337	30.51
691.523	30.43
691.709	30.63
691.895	30.64
692.081	30.67
692.267	30.59
692.453	30.7
692.639	30.95
692.825	30.99
693.011	31.03
693.196	31.39
693.382	31.46
693.568	31.4
693.754	31.42
693.94	31.14
694.125	31.21
694.311	31.5
694.497	31.53
694.682	31.37
694.868	31.19
695.054	31.29
695.239	31.26
695.425	31.12
695.611	31.35
695.796	31.06
695.982	31.21
696.168	31.26
696.353	30.69
696.539	30.57
696.724	30.74
696.91	30.69
697.095	30.32
697.281	30.32
697.466	30.28
697.652	30.24
697.837	30.26
698.023	30.17
698.208	30.26
698.393	30.54
698.579	30.79
698.764	30.57
698.949	30.68
699.135	31.17
699.32	30.92
699.505	31.04
699.691	30.81
699.876	30.96
700.061	31.05
700.246	30.91
700.432	30.84
700.617	30.77
700.802	30.94
700.987	31.06
701.172	31.23
701.358	31.46
701.543	31.58
701.728	31.86
701.913	31.56
702.098	31.48
702.283	31.59
702.468	31.71
702.653	31.35
702.838	31.36
703.023	31.03
703.208	30.64
703.393	30.46
703.578	30.16
703.763	30.33
703.948	31.19
704.133	31.37
704.318	31.41
704.503	31.72
704.688	32.22
704.873	32.49
705.057	33.04
705.242	33.35
705.427	33.84
705.612	34.05
705.797	34.62
705.981	34.13
706.166	34.31
706.351	34.87
706.536	34.83
706.72	35.05
706.905	35.15
707.09	34.88
707.274	34.65
707.459	35
707.644	35.52
707.828	35.08
708.013	35.05
708.197	34.77
708.382	34.25
708.567	33.9
708.751	33.58
708.936	33.4
709.12	33.38
709.305	33.36
709.489	33.25
709.673	32.69
709.858	32.27
710.042	32.45
710.227	32.96
710.411	33.26
710.596	33.46
710.78	33.33
710.964	33.11
711.149	33.23
711.333	33.29
711.517	32.88
711.702	33.31
711.886	33.08
712.07	33.01
712.254	32.78
712.438	32.38
712.623	32.15
712.807	32.03
712.991	32.4
713.175	32.5
713.359	32.31
713.544	32.28
713.728	31.64
713.912	32.02
714.096	31.84
714.28	31.64
714.464	31.32
714.648	31.32
714.832	31.19
715.016	30.72
715.2	30.4
715.384	30.61
715.568	30.47
715.752	30.54
715.936	30.26
716.12	30.16
716.304	30.09
716.488	29.99
716.671	29.99
716.855	30.17
717.039	29.98
717.223	29.72
717.407	29.35
717.59	29.37
717.774	29.55
717.958	29.51
718.142	29.14
718.325	29.26
718.509	29.69
718.693	29.25
718.877	29.35
719.06	29.44
719.244	29.52
719.428	29.26
719.611	29.52
719.795	29.53
719.978	29.91
720.162	30.46
720.345	30.59
720.529	30.81
720.713	31.36
720.896	31.03
721.08	30.93
721.263	31.03
721.446	31.84
721.63	31.55
721.813	31.9
721.997	31.94
722.18	31.58
722.364	31.21
722.547	30.92
722.73	30.59
722.914	30.67
723.097	31.45
723.28	31.5
723.464	31.17
723.647	31.38
723.83	30.73
724.013	30.38
724.197	30.84
724.38	31.16
724.563	31.38
724.746	31.63
724.929	32.25
725.112	31.86
725.296	31.85
725.479	31.32
725.662	31.19
725.845	31.24
726.028	31.75
726.211	31.43
726.394	31.2
726.577	30.81
726.76	31.03
726.943	30.25
727.126	29.93
727.309	29.7
727.492	30.2
727.675	30.09
727.858	30.18
728.041	30.26
728.224	30.46
728.407	30.66
728.589	30.9
728.772	30.34
728.955	30.52
729.138	30.9
729.321	30.85
729.503	30.55
729.686	30.62
729.869	30.28
730.052	29.76
730.234	29.52
730.417	29.24
730.6	29.18
730.782	29.83
730.965	30.3
731.148	30.25
731.33	30.55
731.513	30.76
731.695	30.86
731.878	31.34
732.061	31.55
732.243	31.98
732.426	32.68
732.608	33.05
732.791	32.52
732.973	32.25
733.156	32.49
733.338	32.78
733.52	33
733.703	32.85
733.885	32.88
734.068	32.69
734.25	32.41
734.432	32.03
734.615	32.01
734.797	32.3
734.979	32.55
735.162	32.24
735.344	32.2
735.526	31.76
735.708	31.58
735.891	32.06
736.073	31.77
736.255	31.69
736.437	31.4
736.619	31.02
736.802	30.62
736.984	30.41
737.166	30.19
737.348	29.36
737.53	29.79
737.712	30.14
737.894	29.68
738.076	30.16
738.258	30.23
738.44	30.11
738.622	30.3
738.804	30.65
738.986	30.52
739.168	30.91
739.35	31.37
739.532	31.39
739.714	31.61
739.896	31.22
740.078	31.31
740.259	31.4
740.441	31.81
740.623	31.59
740.805	31.41
740.987	31.57
741.168	31.14
741.35	31.73
741.532	31.38
741.714	31.06
741.895	31.02
742.077	30.5
742.259	30.59
742.44	30.58
742.622	30.21
742.804	30.73
742.985	30.21
743.167	30.59
743.348	30.36
743.53	30.68
743.711	31.08
743.893	30.78
744.075	31.21
744.256	30.79
744.438	30.84
744.619	31.41
744.8	30.91
744.982	31.74
745.163	31.52
745.345	31.05
745.526	30.87
745.707	30.32
745.889	31.13
746.07	31.02
746.252	31.31
746.433	31.43
746.614	31.8
746.795	31.91
746.977	31.35
747.158	31.98
747.339	32.61
747.52	32.58
747.702	33.4
747.883	33.31
748.064	32.89
748.245	32.92
748.426	32.59
748.607	32.31
748.788	32.44
748.97	32.74
749.151	32.27
749.332	32.32
749.513	33.17
749.694	32.54
749.875	32.93
750.056	33.34
750.237	32.98
750.418	32.73
750.599	32.5
750.78	32.44
750.96	32.14
751.141	31.92
751.322	31.21
751.503	30.27
751.684	30.41
751.865	30.15
752.046	30.34
752.226	30.99
752.407	31.09
752.588	31.11
752.769	30.92
752.949	30.52
753.13	30.54
753.311	31.38
753.492	31.71
753.672	31.94
753.853	31.69
754.034	31.7
754.214	31.79
754.395	32.19
754.575	32.22
754.756	32.77
754.937	33.64
755.117	33.8
755.298	33.29
755.478	32.85
755.659	32.41
755.839	32.52
756.02	32.04
756.2	31.65
756.381	31.16
756.561	30.78
756.741	31
756.922	30.58
757.102	30.21
757.283	29.89
757.463	30.52
757.643	30.58
757.823	30.75
758.004	30.93
758.184	30.65
758.364	30.55
758.545	30.97
758.725	29.94
758.905	30.22
759.085	29.95
759.265	29.77
759.446	28.72
759.626	28.99
759.806	28.89
759.986	29.14
760.166	29.35
760.346	28.99
760.526	28.55
760.706	29.12
760.886	29.33
761.066	29.57
761.246	29.65
761.426	30.18
761.606	29.98
761.786	29.84
761.966	29.37
762.146	29.1
762.326	29.47
762.506	29.97
762.686	30.04
762.866	30.13
763.046	30.22
763.225	30.33
763.405	30.26
763.585	30
763.765	30.22
763.945	29.96
764.124	29.79
764.304	30.13
764.484	29.76
764.664	29.6
764.843	29.54
765.023	29.85
765.203	29.93
765.382	29.82
765.562	30.37
765.741	30.36
765.921	31.22
766.101	32.09
766.28	31.86
766.46	32.39
766.639	32.57
766.819	32
766.998	32.1
767.178	32.02
767.357	32.32
767.537	32.93
767.716	32.95
767.896	33.47
768.075	33.25
768.254	33.02
768.434	33.09
768.613	32.83
768.792	32.89
768.972	32.65
769.151	32.91
769.33	32.88
769.51	32.5
769.689	32.15
769.868	31.89
770.047	31.74
770.226	32.34
770.406	32.15
770.585	32.04
770.764	32.37
770.943	32.83
771.122	32.42
771.301	32.74
771.48	32.75
771.66	32.74
771.839	31.98
772.018	31.92
772.197	32.5
772.376	32.45
772.555	33.22
772.734	33.35
772.913	32.81
773.092	33.31
773.271	33
773.449	31.9
773.628	32.43
773.807	33.02
773.986	33.56
774.165	33.41
774.344	33.31
774.523	33.15
774.701	32.9
774.88	32.75
775.059	32.2
775.238	32.65
775.417	33.01
775.595	32.77
775.774	32.87
775.953	32.24
776.131	31.24
776.31	30.84
776.489	30.5
776.667	30.53
776.846	31.32
777.025	31.74
777.203	31.65
777.382	32.73
777.56	32.36
777.739	31.61
777.917	31.54
778.096	32.03
778.274	32.27
778.453	32.78
778.631	33.25
778.81	33.11
778.988	33.61
779.166	33.89
779.345	33.62
779.523	33.27
779.702	34.63
779.88	34.9
780.058	35.15
780.237	35.31
780.415	34.4
780.593	33.77
780.771	33.36
780.95	33.17
781.128	32.41
781.306	31.75
781.484	32.82
781.662	31.81
781.841	31.41
782.019	30.55
782.197	30.67
782.375	31.07
782.553	31.94
782.731	32.54
782.909	32.18
783.087	32.47
783.265	33.17
783.443	32.1
783.621	32.07
783.799	32.58
783.977	32.87
784.155	31.74
784.333	31.13
784.511	31.62
784.689	30.97
784.867	31.16
785.045	31.34
785.223	31.04
785.4	31.68
785.578	31.98
785.756	31.01
785.934	31.7
786.112	32.82
786.289	33.2
786.467	31.4
786.645	31.17
786.823	29.82
787	30.19
787.178	29.77
787.356	30.09
787.533	30.24
787.711	30.42
787.889	29.77
788.066	30.14
788.244	29.54
788.421	29.93
788.599	30.26
788.776	31.35
788.954	31.01
789.131	31.45
789.309	31.19
789.486	30.78
789.664	32.34
789.841	31.85
790.019	31.48
790.196	32.34
790.373	32.68
790.551	33.58
790.728	33.8
790.906	34.45
791.083	34.18
791.26	34.02
791.437	33.27
791.615	32.82
791.792	33.08
791.969	33.36
792.146	33.29
792.324	33.19
792.501	32.73
792.678	31.53
792.855	30.33
793.032	29.86
793.209	30.6
793.387	31.45
793.564	30.2
793.741	30.37
793.918	29.9
794.095	29.06
794.272	29.61
794.449	29.64
794.626	30.03
794.803	31.57
794.98	31.67
795.157	30.28
795.334	30.96
795.511	30.86
795.688	30.79
795.864	30.92
796.041	32.38
796.218	30.86
796.395	31.04
796.572	31.52
796.749	30.52
796.925	30.85
797.102	31.89
797.279	31.03
797.456	31.79
797.632	32.41
797.809	32.4
797.986	31.58
798.162	32.82
798.339	32.44
798.516	33.12
798.692	33.06
798.869	33.12
799.046	32.71
799.222	32.75
799.399	31.94
799.575	31.78
799.752	31.08
799.928	30.61
800.105	30.98
800.281	30.06
800.458	29.62
800.634	30.6
800.811	29.46
800.987	29.42
801.163	28.7
801.34	28.97
801.516	27.92
801.692	27.89
801.869	28.84
802.045	28.15
802.221	28.32
802.398	28.31
802.574	26.82
802.75	28.52
802.926	28.53
803.103	30.2
803.279	30.86
803.455	32.37
803.631	33.67
803.807	33.06
803.983	33.58
804.16	33.2
804.336	32.14
804.512	32.77
804.688	32.58
804.864	33.22
805.04	31.94
805.216	31.01
805.392	30.8
805.568	29.3
805.744	30.08
805.92	29.48
806.096	30.43
806.272	30.23
806.448	29.1
806.623	28.18
806.799	28.08
806.975	27.95
807.151	27.77
807.327	26.89
807.503	28.06
807.678	28.37
807.854	28.84
808.03	28.21
808.206	29.32
808.381	29.7
808.557	29.29
808.733	28.36
808.908	29.86
809.084	30.5
809.26	31.77
809.435	30.98
809.611	29.39
809.787	29.54
809.962	29.74
810.138	29.41
810.313	29.06
810.489	29.48
810.664	29.78
810.84	28.7
811.015	28.59
811.191	27.41
811.366	27.96
811.542	28.96
811.717	28.88
811.892	30.59
812.068	30.92
812.243	30.42
812.419	30.71
812.594	30.55
812.769	30.49
812.944	30.87
813.12	30.73
813.295	29.76
813.47	29.36
813.645	29.18
813.821	27.17
813.996	27.26
814.171	28.35
814.346	28.33
814.521	28.58
814.697	27.56
814.872	26.1
815.047	26.08
815.222	28.59
815.397	28.79
815.572	27.49
815.747	28.02
815.922	27.39
816.097	27.21
816.272	28.42
816.447	29.12
816.622	31.22
816.797	33.18
816.972	32.81
817.147	31.32
817.322	31.35
817.496	31.72
817.671	32.35
817.846	33.25
818.021	32.69
818.196	31.07
818.371	31.31
818.545	30.15
818.72	30.24
818.895	29.94
819.069	29.22
819.244	29.89
819.419	29.1
819.594	28.69
819.768	28.17
819.943	28.75
820.117	28.75
820.292	29.03
820.467	28.82
820.641	28.08
820.816	28.86
820.99	28.83
821.165	28.55
821.339	28.32
821.514	28.01
821.688	28
821.863	27.92
822.037	28.06
822.212	27.63
822.386	27.68
822.56	27.79
822.735	27.62
822.909	27.72
823.084	27.56
823.258	27.82
823.432	27.96
823.606	27.9
823.781	27.95
823.955	27.96
824.129	27.96
824.303	28.23
824.478	28.12
824.652	28.17
824.826	28.32
825	28.2
825.174	27.92
825.348	28.09
825.523	27.94
825.697	27.68
825.871	27.61
826.045	27.75
826.219	27.8
826.393	27.64
826.567	27.58
826.741	27.3
826.915	28.01
827.089	28.18
827.263	27.79
827.437	27.78
827.611	27.98
827.784	27.65
827.958	27.52
828.132	26.95
828.306	27.15
828.48	27.1
828.654	27.54
828.827	27.27
829.001	27.35
829.175	27.26
829.349	27.52
829.522	27.78
829.696	28.23
829.87	29.07
830.044	29.5
830.217	29.4
830.391	29.73
830.565	29.43
830.738	29.64
830.912	30
831.085	30.88
831.259	31.52
831.432	29.83
831.606	30.16
831.779	30.31
831.953	29.59
832.126	29.43
832.3	29.25
832.473	29.05
832.647	28.43
832.82	27.92
832.994	28.21
833.167	28.45
833.34	29.31
833.514	29.75
833.687	28.61
833.86	28.67
834.034	29.02
834.207	29.08
834.38	28.5
834.553	28.39
834.727	28.79
834.9	28.23
835.073	27.8
835.246	27.36
835.419	27.15
835.593	27.5
835.766	27.69
835.939	27.84
836.112	28.12
836.285	28.8
836.458	28.94
836.631	28.73
836.804	29.5
836.977	29.56
837.15	29.09
837.323	28.62
837.496	27.72
837.669	27.66
837.842	27.11
838.015	25.75
838.188	24.07
838.361	24.36
838.533	24.15
838.706	23.47
838.879	24.1
839.052	26.19
839.225	25.8
839.398	27.14
839.57	27.33
839.743	26.67
839.916	27.29
840.088	29.85
840.261	29.9
840.434	29.89
840.607	29.9
840.779	29.34
840.952	28.66
841.124	27.11
841.297	27.02
841.47	25.71
841.642	26.2
841.815	26.75
841.987	25.05
842.16	23.63
842.332	25.04
842.505	23.95
842.677	23.59
842.85	23.9
843.022	26.92
843.194	27.71
843.367	29.13
843.539	29.7
843.712	28.48
843.884	28.64
844.056	34.52
844.229	33.96
844.401	35.28
844.573	36.28
844.745	39.76
844.918	37.1
845.09	37.74
845.262	38.44
845.434	37.76
845.606	39.09
845.779	39.33
845.951	37.14
846.123	37.43
846.295	41.02
846.467	38.92
846.639	35.35
846.811	34.85
846.983	35.51
847.155	33.45
847.327	32.99
847.499	30.65
847.671	33.44
847.843	28.85
848.015	28.18
848.187	27.06
848.359	26.34
848.531	26.95
848.703	30.2
848.875	30.64
849.047	32.83
849.218	33.1
849.39	35.7
849.562	33.8
849.734	34.81
849.905	35.17
850.077	31.1
850.249	33.18
850.421	31.79
850.592	31.29
850.764	26.96
850.936	26.04
851.107	27.83
851.279	24.02
851.451	25.31
851.622	28.73
851.794	25.78
851.965	27.06
852.137	31.49
852.308	33.06
852.48	32.52
852.651	34.88
852.823	37.16
852.994	35.1
853.166	35.11
853.337	33.71
853.509	30.86
853.68	33.07
853.851	30.7
854.023	26.05
854.194	24.48
854.365	26.5
854.537	25.73
854.708	24.85
854.879	28.71
855.05	31.4
855.222	32.18
855.393	34.66
855.564	36.82
855.735	40.57
855.906	42.84
856.078	41.02
856.249	36.63
856.42	39.41
856.591	42.85
856.762	44.66
856.933	45.5
857.104	43.81
857.275	40.31
857.446	38.8
857.617	39.47
857.788	40.22
857.959	44.07
858.13	47.51
858.301	46.81
858.472	41.99
858.643	38.05
858.814	36.22
858.985	38.18
859.155	38.73
859.326	38.25
859.497	36.36
859.668	35.97
859.839	33.77
860.009	32.25
860.18	32.16
860.351	30.19
860.522	28.5
860.692	26.94
860.863	23
861.034	29.01
861.204	30.8
861.375	34.18
861.546	33.33
861.716	32.12
861.887	34.26
862.057	33.5
862.228	31.11
862.398	29.34
862.569	37.13
862.739	38.83
862.91	31.24
863.08	27.79
863.251	29
863.421	25.33
863.592	26.35
863.762	26.04
863.932	24.27
864.103	27.83
864.273	30.45
864.443	25.9
864.614	24.53
864.784	27.85
864.954	31.36
865.125	23.16
865.295	25.92
865.465	20.82
865.635	18.74
865.805	20.16
865.976	24.87
866.146	22.49
866.316	20.3
866.486	24.87
866.656	27.58
866.826	26.63
866.996	31.69
867.166	32.69
867.336	34.1
867.506	36.82
867.676	35.58
867.846	32.1
868.016	36.88
868.186	38.04
868.356	34.17
868.526	34.94
868.696	34.91
868.866	30.07
869.036	27.69
869.206	28.73
869.376	27.65
869.545	30.72
869.715	27.48
869.885	22.61
870.055	22.94
870.224	24.77
870.394	18.8
870.564	14.88
870.734	19.76
870.903	17.81
871.073	19.14
871.243	18.12
871.412	17.73
871.582	20.44
871.751	24.85
871.921	25.02
872.091	22.45
872.26	24.17
872.43	25.63
872.599	24.72
872.769	26.69
872.938	26.21
873.108	25.85
873.277	22.75
873.446	24.33
873.616	21.51
873.785	24.23
873.955	27.08
874.124	31.52
874.293	35.87
874.463	28.55
874.632	34.49
874.801	36.14
874.971	37.46
875.14	39.01
875.309	39.91
875.478	40.13
875.647	37.02
875.817	35.46
875.986	31.36
876.155	27.52
876.324	31.41
876.493	30.04
876.662	29.98
876.831	27.09
877	27.3
877.17	27.44
877.339	30.74
877.508	32.46
877.677	32.38
877.846	33.6
878.015	36.26
878.184	38.76
878.352	36.2
878.521	35.3
878.69	34.04
878.859	34.38
879.028	36.58
879.197	32.87
879.366	31.55
879.534	31.28
879.703	31.69
879.872	28.93
880.041	27
880.21	25.31
880.378	26.77
880.547	28.03
880.716	28.01
880.884	25.59
881.053	25.44
881.222	25.31
881.39	25.59
881.559	25.08
881.727	26.06
881.896	26.28
882.065	26.88
882.233	26.77
882.402	26.82
882.57	25.74
882.739	25.76
882.907	26.71
883.076	27
883.244	26.71
883.412	27.16
883.581	27.12
883.749	26.9
883.918	26.19
884.086	25.69
884.254	25.29
884.423	26.01
884.591	26.99
884.759	26.17
884.927	25.28
885.096	24.94
885.264	24.56
885.432	25.38
885.6	24.04
885.769	24.18
885.937	23.23
886.105	24.28
886.273	25.47
886.441	25.15
886.609	27.04
886.777	27.18
886.945	31.06
887.113	31.53
887.281	28.81
887.449	32.16
887.617	37.89
887.785	38.72
887.953	35.99
888.121	35.3
888.289	33.02
888.457	29.68
888.625	32.34
888.793	28.77
888.961	30.41
889.129	31.36
889.296	30.57
889.464	25.2
889.632	27.61
889.8	29.66
889.967	30.06
890.135	33.18
