Data from 2938729__Reflection_01.txt Node
Date: Sun Mar 15 19:06:22 EDT 2015
User: robert
Spectrometer: USB4E03002
Autoset integration time: false
Trigger mode: 4
Integration Time (sec): 1.000000E-1
Scans to average: 10
Electric dark correction enabled: false
Nonlinearity correction enabled: false
Boxcar width: 5
Stray light correction enabled: false
XAxis mode: Wavelengths
Stop averaging: false
Number of Pixels in Spectrum: 3648
>>>>>Begin Spectral Data<<<<<
177.575	-37.43
177.794	-0.84
178.014	-31.34
178.233	-15.04
178.452	-6.63
178.672	-5.33
178.891	-25.06
179.11	-62.9
179.33	-218.84
179.549	-1282.14
179.768	-119.35
179.987	28.63
180.207	128.77
180.426	-300
180.645	48.15
180.864	74.91
181.084	38.76
181.303	14.79
181.522	-62.93
181.741	-14
181.96	-44.09
182.179	56.25
182.398	47.47
182.618	50.66
182.837	22.46
183.056	75.77
183.275	54.86
183.494	69.7
183.713	94.34
183.932	141.4
184.151	132.2
184.37	111.46
184.589	127.49
184.808	133.86
185.027	132.76
185.246	140
185.465	88.33
185.684	115.36
185.903	277.5
186.122	196.15
186.341	149.13
186.56	100
186.779	-86.67
186.998	228
187.216	2071.43
187.435	-155.56
187.654	-12600
187.873	-34.76
188.092	-62.98
188.311	-717.65
188.53	-1340.74
188.748	1096.15
188.967	680.7
189.186	272.13
189.405	440.74
189.623	554.76
189.842	590.91
190.061	1952.38
190.28	400
190.498	474.65
190.717	134.86
190.936	118.75
191.154	105.91
191.373	75.51
191.592	-35.51
191.81	16.15
192.029	-9.71
192.248	61.68
192.466	10.04
192.685	26.85
192.904	71.59
193.122	102.17
193.341	98.35
193.559	82.53
193.778	107.14
193.996	157.59
194.215	572.15
194.433	601.49
194.652	427.03
194.87	3345.45
195.089	-265.89
195.307	-103.08
195.526	-117.65
195.744	31.37
195.963	19.4
196.181	55.3
196.399	28.88
196.618	309.38
196.836	-1410
197.055	-59.26
197.273	-118.69
197.491	-21.48
197.71	22.29
197.928	45.82
198.146	69.23
198.365	76.53
198.583	106.58
198.801	89.66
199.019	79.38
199.238	59.46
199.456	62.29
199.674	119.86
199.892	83.49
200.111	97.37
200.329	79.31
200.547	84.68
200.765	4.42
200.983	61.32
201.202	-101.45
201.42	84.94
201.638	130
201.856	78.63
202.074	58.82
202.292	-60.66
202.51	27.41
202.728	-46.03
202.946	-30.73
203.165	-19.81
203.383	-96.98
203.601	-29.84
203.819	-76.61
204.037	-52.54
204.255	-199.24
204.473	-322.64
204.691	-225.89
204.909	-112.44
205.127	-231.53
205.345	-185.71
205.562	-366.67
205.78	-52.94
205.998	314.29
206.216	-95.49
206.434	-27.15
206.652	23.62
206.87	9.36
207.088	18.14
207.306	25.98
207.523	37.61
207.741	35.33
207.959	38.3
208.177	40.07
208.395	47.33
208.612	44.58
208.83	54.04
209.048	60.46
209.266	78.44
209.483	84.24
209.701	75.73
209.919	75.23
210.136	101.98
210.354	85.56
210.572	58.92
210.79	34.65
211.007	67.36
211.225	44.3
211.442	43.66
211.66	30.68
211.878	26.26
212.095	31.27
212.313	35.41
212.53	22.96
212.748	26.57
212.966	32.69
213.183	31.78
213.401	15.94
213.618	27.06
213.836	34.56
214.053	45.8
214.271	42.95
214.488	35.65
214.705	33.13
214.923	30.23
215.14	35.72
215.358	44.12
215.575	62.7
215.793	58.86
216.01	34.44
216.227	-144.81
216.445	-118.52
216.662	-129.39
216.879	-45.33
217.097	-66.58
217.314	-26.92
217.531	10.32
217.749	-5.27
217.966	-13.75
218.183	15.85
218.4	21.79
218.618	51.08
218.835	53.87
219.052	46.73
219.269	54.17
219.487	43.99
219.704	24.45
219.921	-18.16
220.138	4.25
220.355	-2.83
220.572	-7.02
220.79	6.29
221.007	9.17
221.224	6.62
221.441	10.82
221.658	7.56
221.875	4.43
222.092	7.59
222.309	6.72
222.526	11.2
222.743	12
222.96	10.43
223.177	1.37
223.394	2.23
223.611	3.07
223.828	1.54
224.045	1.79
224.262	10.65
224.479	16.16
224.696	16.47
224.913	13.12
225.13	11.63
225.347	4.55
225.564	2.75
225.781	5.56
225.997	2.99
226.214	5.9
226.431	3.57
226.648	0.1
226.865	-0.97
227.082	0.87
227.298	0.52
227.515	1.87
227.732	2.5
227.949	3.57
228.165	1.99
228.382	3.6
228.599	3.97
228.816	3.63
229.032	4.33
229.249	4.29
229.466	4.44
229.682	3.44
229.899	2.69
230.116	5.2
230.332	5.3
230.549	4.96
230.765	3.35
230.982	3.49
231.199	2.48
231.415	3.25
231.632	4.23
231.848	3.77
232.065	6.38
232.281	9.47
232.498	5.06
232.714	3.9
232.931	7.28
233.147	7.66
233.364	7.36
233.58	8.9
233.797	8.36
234.013	7.23
234.23	7.1
234.446	6.98
234.662	6.3
234.879	6.85
235.095	7.11
235.312	5.51
235.528	6.6
235.744	6.27
235.961	5.98
236.177	3.24
236.393	3.91
236.61	3.05
236.826	2.48
237.042	-1
237.258	-0.2
237.475	1.39
237.691	2.21
237.907	2.88
238.123	0.61
238.339	2.87
238.556	4.75
238.772	5.17
238.988	5.12
239.204	4.54
239.42	6.74
239.636	6.9
239.853	4.96
240.069	2.8
240.285	3.13
240.501	4.13
240.717	3.08
240.933	3.33
241.149	2.54
241.365	2.8
241.581	3.02
241.797	3.17
242.013	2.11
242.229	2.69
242.445	3.31
242.661	3.14
242.877	3.01
243.093	3.18
243.309	2.28
243.525	2.47
243.741	2.2
243.957	2.22
244.173	2.55
244.388	3.78
244.604	3.14
244.82	3.33
245.036	4.16
245.252	4.85
245.468	4.48
245.683	4.42
245.899	4.89
246.115	5.01
246.331	4.78
246.547	4.3
246.762	3.89
246.978	4.19
247.194	4.04
247.409	3.51
247.625	3.43
247.841	3.76
248.057	3.9
248.272	3.61
248.488	3.26
248.703	2.93
248.919	3.42
249.135	3.62
249.35	3.45
249.566	3.6
249.782	3.82
249.997	3.46
250.213	2.91
250.428	3.56
250.644	3.05
250.859	3.49
251.075	4.43
251.29	2.86
251.506	2.98
251.721	2.58
251.937	3.09
252.152	3.37
252.368	3.03
252.583	3.48
252.798	3.44
253.014	2.73
253.229	2.44
253.445	1.96
253.66	2.58
253.875	2.89
254.091	3.54
254.306	2.17
254.521	0.31
254.737	0.64
254.952	-0.19
255.167	-0.48
255.383	1.76
255.598	2.86
255.813	2.88
256.028	3.96
256.244	2.75
256.459	2.61
256.674	3.66
256.889	4.26
257.104	3.87
257.32	3.78
257.535	3.64
257.75	3.83
257.965	3.52
258.18	3.62
258.395	2.41
258.61	2.38
258.826	2.58
259.041	2.48
259.256	2.53
259.471	2.61
259.686	2.78
259.901	2.57
260.116	2.1
260.331	2.09
260.546	1.82
260.761	2.02
260.976	1.99
261.191	1.62
261.406	1.65
261.621	1.62
261.836	1.56
262.05	1.3
262.265	1.13
262.48	1.32
262.695	0.94
262.91	1.01
263.125	0.71
263.34	0.43
263.555	0.77
263.769	0.48
263.984	0.32
264.199	-0.24
264.414	-1.3
264.629	-0.56
264.843	-0.71
265.058	-0.46
265.273	-0.17
265.488	0.1
265.702	0.39
265.917	-0.12
266.132	-0.08
266.346	0.06
266.561	0.73
266.776	1.64
266.99	1.59
267.205	1.34
267.42	0.87
267.634	0.46
267.849	0.75
268.063	1.23
268.278	1.8
268.492	1.38
268.707	1.84
268.922	2
269.136	1.67
269.351	1.47
269.565	1.33
269.78	1.53
269.994	1.79
270.209	1.6
270.423	1.58
270.637	2.31
270.852	2.51
271.066	2.34
271.281	2.22
271.495	2.58
271.709	2.7
271.924	3.12
272.138	3.44
272.353	3.16
272.567	2.94
272.781	3.23
272.996	2.45
273.21	2.52
273.424	2.21
273.638	2.33
273.853	2.15
274.067	1.92
274.281	1.96
274.495	1.76
274.71	1.85
274.924	2.01
275.138	1.35
275.352	1.32
275.566	0.99
275.781	0.86
275.995	0.93
276.209	0.79
276.423	0.67
276.637	0.74
276.851	0.93
277.065	1.48
277.279	1.59
277.493	1.94
277.707	2.35
277.921	2.49
278.135	2.86
278.349	3.15
278.563	2.65
278.777	2.89
278.991	2.29
279.205	2.34
279.419	2.15
279.633	2.3
279.847	1.9
280.061	1.21
280.275	1.94
280.489	1.44
280.703	1.06
280.917	1.23
281.131	0.88
281.344	1.15
281.558	1.08
281.772	1.18
281.986	0.91
282.2	1.03
282.414	1.37
282.627	1.12
282.841	1.57
283.055	1.49
283.269	1.77
283.482	2.15
283.696	2.37
283.91	2.21
284.123	2.29
284.337	2.59
284.551	2.71
284.764	2.74
284.978	2.18
285.192	2.06
285.405	2.2
285.619	2.24
285.833	1.85
286.046	1.75
286.26	1.81
286.473	1.38
286.687	1.3
286.9	1.04
287.114	0.82
287.327	1.25
287.541	1.18
287.754	0.87
287.968	0.98
288.181	1.43
288.395	1.47
288.608	1.49
288.822	1.77
289.035	1.61
289.248	1.65
289.462	1.62
289.675	1.78
289.889	2.18
290.102	2.49
290.315	2.14
290.529	1.95
290.742	1.81
290.955	2.27
291.169	2.41
291.382	2.51
291.595	2.65
291.808	3.06
292.022	2.58
292.235	2.16
292.448	1.99
292.661	2.52
292.875	2.77
293.088	3.16
293.301	2.87
293.514	2.77
293.727	2.51
293.94	2.67
294.153	2.4
294.367	2.35
294.58	2.32
294.793	2.41
295.006	2.47
295.219	2.24
295.432	1.92
295.645	1.61
295.858	1.62
296.071	1.92
296.284	1.89
296.497	2.11
296.71	2.32
296.923	2.6
297.136	2.53
297.349	2.4
297.562	2.45
297.775	2.69
297.988	2.79
298.201	2.77
298.414	2.49
298.626	2.59
298.839	2.54
299.052	2.65
299.265	2.72
299.478	2.82
299.691	2.86
299.903	3.04
300.116	2.71
300.329	2.85
300.542	2.87
300.755	3.31
300.967	3.41
301.18	3.49
301.393	3.18
301.605	2.9
301.818	2.56
302.031	2.78
302.243	3
302.456	3.34
302.669	3.2
302.881	3.35
303.094	3.41
303.307	3.21
303.519	2.75
303.732	3.27
303.944	3.36
304.157	3.58
304.37	3.22
304.582	3.11
304.795	2.81
305.007	3.23
305.22	2.97
305.432	2.98
305.645	3.29
305.857	3.43
306.069	2.8
306.282	2.43
306.494	2.31
306.707	2.04
306.919	1.9
307.132	1.75
307.344	1.27
307.556	1.37
307.769	1.41
307.981	1.1
308.193	1.38
308.406	2.05
308.618	2.05
308.83	2.18
309.043	2.65
309.255	2.6
309.467	3
309.679	3.12
309.892	3.31
310.104	3.06
310.316	3.1
310.528	3.3
310.74	3.17
310.953	3.54
311.165	3.38
311.377	3.31
311.589	3.24
311.801	3.17
312.013	3.19
312.225	3.12
312.437	3.26
312.649	3.41
312.862	3.14
313.074	2.85
313.286	2.55
313.498	2.73
313.71	2.58
313.922	2.79
314.134	2.64
314.346	2.73
314.558	2.42
314.77	2.43
314.982	2.48
315.193	2.23
315.405	2.25
315.617	2.44
315.829	2.42
316.041	2.15
316.253	2.13
316.465	2.58
316.677	2.32
316.888	2.65
317.1	2.62
317.312	2.16
317.524	2.88
317.736	3.04
317.947	3.2
318.159	3.59
318.371	3.63
318.583	3.57
318.794	3.73
319.006	4.21
319.218	4.41
319.43	4.55
319.641	4.97
319.853	4.57
320.064	4.75
320.276	4.64
320.488	4.45
320.699	5.15
320.911	4.72
321.123	4.25
321.334	4.3
321.546	4.14
321.757	3.97
321.969	4.16
322.18	4.82
322.392	5.12
322.603	5.45
322.815	5.15
323.026	4.88
323.238	5.66
323.449	6.35
323.661	6.18
323.872	6.59
324.083	6.83
324.295	6.88
324.506	6.67
324.718	6.92
324.929	7.01
325.14	7.94
325.352	8.34
325.563	8.72
325.774	9.04
325.986	9.43
326.197	9.53
326.408	10.19
326.62	10.58
326.831	11.06
327.042	11.49
327.253	12.07
327.464	11.96
327.676	12.47
327.887	12.84
328.098	12.94
328.309	13.54
328.52	14.34
328.732	14.4
328.943	14.75
329.154	15.34
329.365	15.53
329.576	15.82
329.787	15.99
329.998	16.53
330.209	16.83
330.42	17.86
330.631	18.16
330.842	18.46
331.053	19.44
331.264	19.92
331.475	20.31
331.686	20.65
331.897	21.08
332.108	22.05
332.319	22.33
332.53	23.16
332.741	23.25
332.952	23.92
333.163	24.55
333.374	24.66
333.585	24.96
333.795	25.14
334.006	25.94
334.217	26.65
334.428	27.18
334.639	27.26
334.849	27.23
335.06	27.47
335.271	27.56
335.482	27.52
335.692	27.77
335.903	27.6
336.114	27.74
336.325	28.09
336.535	28.08
336.746	27.91
336.957	28.35
337.167	28.79
337.378	29.09
337.589	29.39
337.799	29.3
338.01	29.8
338.22	30.73
338.431	31.27
338.642	31.07
338.852	31.29
339.063	31.76
339.273	31.8
339.484	31.78
339.694	31.36
339.905	31.44
340.115	31.91
340.326	31.83
340.536	32.01
340.746	31.92
340.957	32.43
341.167	32.37
341.378	32.51
341.588	32.19
341.799	32.49
342.009	33.27
342.219	33
342.43	32.66
342.64	33.07
342.85	32.62
343.061	32.85
343.271	32.19
343.481	32.48
343.691	32.42
343.902	32.87
344.112	32.82
344.322	32.42
344.532	32.9
344.743	33.44
344.953	33.24
345.163	33.49
345.373	33.83
345.583	34.55
345.793	34.5
346.004	34.54
346.214	34.61
346.424	34.61
346.634	34.81
346.844	34.64
347.054	34.51
347.264	34.59
347.474	34.65
347.684	34.18
347.894	34.28
348.104	34.2
348.314	34.21
348.524	34.25
348.734	34.21
348.944	34.11
349.154	33.83
349.364	33.79
349.574	33.59
349.784	33.4
349.994	33.7
350.204	33.01
350.413	33.08
350.623	32.94
350.833	32.62
351.043	32.3
351.253	32.27
351.463	32.61
351.672	32.39
351.882	32.26
352.092	32.53
352.302	32.31
352.511	32.5
352.721	32.6
352.931	32.59
353.141	33.04
353.35	32.91
353.56	32.8
353.77	32.74
353.979	33.09
354.189	33.27
354.399	33.42
354.608	32.99
354.818	32.98
355.027	32.8
355.237	32.64
355.447	32.49
355.656	32.85
355.866	33.08
356.075	33.32
356.285	33.1
356.494	33.12
356.704	32.87
356.913	33.41
357.123	33.22
357.332	33.17
357.542	33.31
357.751	33.33
357.96	33.16
358.17	33.01
358.379	32.9
358.589	32.9
358.798	32.68
359.007	32.86
359.217	32.73
359.426	33.07
359.635	33.1
359.845	33.32
360.054	33.14
360.263	33.35
360.472	33.47
360.682	33.44
360.891	33.79
361.1	33.84
361.309	33.82
361.519	33.75
361.728	33.82
361.937	33.73
362.146	33.64
362.355	33.78
362.564	33.73
362.774	33.72
362.983	33.63
363.192	33.23
363.401	33.28
363.61	33.01
363.819	33.21
364.028	32.76
364.237	32.81
364.446	32.77
364.655	32.76
364.864	32.83
365.073	32.69
365.282	32.69
365.491	33
365.7	33.03
365.909	33.14
366.118	33.05
366.327	33.31
366.536	33.23
366.745	33.28
366.954	33.28
367.162	33.26
367.371	33.24
367.58	33
367.789	32.95
367.998	32.55
368.207	32.61
368.415	32.34
368.624	32.29
368.833	32.35
369.042	32.29
369.25	32.11
369.459	31.98
369.668	31.91
369.877	31.98
370.085	31.38
370.294	31.85
370.503	31.76
370.711	31.55
370.92	31.51
371.129	31.41
371.337	31.24
371.546	31.29
371.754	31.48
371.963	31.64
372.171	31.62
372.38	31.93
372.589	31.96
372.797	32.05
373.006	32.41
373.214	32.53
373.423	32.68
373.631	32.87
373.84	32.83
374.048	32.56
374.256	32.45
374.465	32.52
374.673	32.46
374.882	32.13
375.09	31.91
375.298	31.73
375.507	31.5
375.715	31.3
375.923	31.1
376.132	31.2
376.34	31.21
376.548	31.33
376.757	31.31
376.965	31.29
377.173	31.4
377.381	31.57
377.59	31.59
377.798	31.92
378.006	31.91
378.214	32.15
378.423	31.92
378.631	31.96
378.839	31.74
379.047	31.66
379.255	31.74
379.463	31.37
379.671	31.19
379.879	30.94
380.088	30.55
380.296	30.43
380.504	30.29
380.712	30.36
380.92	30.23
381.128	30.48
381.336	30.6
381.544	30.51
381.752	30.92
381.96	30.68
382.168	30.94
382.376	31.12
382.584	31.48
382.791	31.66
382.999	31.75
383.207	31.91
383.415	31.8
383.623	31.84
383.831	32.13
384.039	31.95
384.247	32.38
384.454	32.49
384.662	32.51
384.87	32.19
385.078	31.96
385.285	31.95
385.493	31.83
385.701	31.54
385.909	31.22
386.116	30.9
386.324	31.03
386.532	30.83
386.739	30.75
386.947	30.64
387.155	30.93
387.362	31.13
387.57	31.12
387.778	31.26
387.985	31.52
388.193	31.65
388.4	31.73
388.608	31.7
388.816	31.62
389.023	31.81
389.231	31.78
389.438	31.68
389.646	31.4
389.853	31.3
390.061	31.2
390.268	31.16
390.475	31.25
390.683	31.08
390.89	31.2
391.098	31.28
391.305	30.93
391.512	30.95
391.72	31.08
391.927	31.29
392.135	31.38
392.342	31.46
392.549	31.55
392.756	31.53
392.964	31.81
393.171	31.76
393.378	31.8
393.586	31.98
393.793	32
394	31.94
394.207	31.7
394.414	31.72
394.622	31.71
394.829	31.81
395.036	31.74
395.243	31.65
395.45	31.68
395.657	31.65
395.864	31.77
396.072	31.58
396.279	31.43
396.486	31.6
396.693	31.6
396.9	31.53
397.107	31.23
397.314	31.33
397.521	31.24
397.728	31.14
397.935	31.35
398.142	31.23
398.349	31.32
398.556	31.51
398.763	31.65
398.97	31.56
399.177	31.6
399.383	31.77
399.59	31.67
399.797	32.04
400.004	32.2
400.211	32.07
400.418	32.16
400.625	32.16
400.831	32.19
401.038	32.05
401.245	32.32
401.452	32.47
401.658	32.3
401.865	32.43
402.072	32.07
402.279	31.96
402.485	32.2
402.692	32.52
402.899	32.68
403.105	32.95
403.312	33.37
403.519	33.44
403.725	33.42
403.932	33.76
404.138	34.16
404.345	34.41
404.552	34.56
404.758	34.3
404.965	33.96
405.171	33.97
405.378	33.66
405.584	33.57
405.791	33.53
405.997	33.41
406.204	33.32
406.41	33.04
406.617	32.98
406.823	32.77
407.029	32.7
407.236	32.84
407.442	32.72
407.649	32.85
407.855	32.54
408.061	32.31
408.268	32.29
408.474	32.34
408.68	32.32
408.887	32.32
409.093	32.37
409.299	32.41
409.505	32.25
409.712	32.28
409.918	32.22
410.124	32.25
410.33	32.26
410.537	32.18
410.743	31.89
410.949	31.91
411.155	31.84
411.361	31.85
411.567	31.95
411.773	31.82
411.98	31.96
412.186	31.97
412.392	32.11
412.598	32.15
412.804	32.36
413.01	32.56
413.216	32.65
413.422	32.65
413.628	32.79
413.834	32.86
414.04	33.07
414.246	33.15
414.452	33.16
414.658	32.79
414.864	32.97
415.07	33.14
415.275	33.2
415.481	33.1
415.687	33.15
415.893	33.01
416.099	32.99
416.305	32.91
416.511	32.97
416.716	32.87
416.922	33.23
417.128	33.2
417.334	33.02
417.539	33.05
417.745	33.06
417.951	33
418.157	33.15
418.362	33.24
418.568	33.43
418.774	33.33
418.979	33.4
419.185	33.26
419.391	33.33
419.596	33.44
419.802	33.35
420.008	33.41
420.213	33.43
420.419	33.36
420.624	33.31
420.83	33.27
421.035	33.25
421.241	33.32
421.446	33.26
421.652	33.24
421.857	33.18
422.063	33.17
422.268	33.17
422.474	33.26
422.679	33.2
422.885	33.25
423.09	33.3
423.295	33.41
423.501	33.38
423.706	33.44
423.911	33.42
424.117	33.42
424.322	33.38
424.527	33.43
424.733	33.4
424.938	33.45
425.143	33.38
425.349	33.34
425.554	33.23
425.759	33.22
425.964	33.22
426.169	33.18
426.375	33.19
426.58	33.31
426.785	33.21
426.99	33.1
427.195	33.15
427.4	33.21
427.605	33.16
427.811	33.22
428.016	33.19
428.221	33.31
428.426	33.28
428.631	33.25
428.836	33.16
429.041	33.15
429.246	33.31
429.451	33.23
429.656	33.29
429.861	33.25
430.066	33.16
430.271	33.3
430.476	33.33
430.681	33.36
430.886	33.3
431.09	33.4
431.295	33.43
431.5	33.48
431.705	33.46
431.91	33.48
432.115	33.54
432.32	33.64
432.524	33.66
432.729	33.65
432.934	33.86
433.139	34.2
433.343	34.53
433.548	34.91
433.753	35.24
433.958	35.68
434.162	36
434.367	36.53
434.572	37.05
434.776	37.45
434.981	38.08
435.186	38.55
435.39	38.82
435.595	38.9
435.799	38.74
436.004	38.6
436.209	38.39
436.413	38.02
436.618	37.56
436.822	37.19
437.027	36.84
437.231	36.19
437.436	35.56
437.64	35.11
437.845	34.87
438.049	34.74
438.253	34.54
438.458	34.48
438.662	34.45
438.867	34.37
439.071	34.26
439.275	34.27
439.48	34.32
439.684	34.44
439.888	34.49
440.093	34.48
440.297	34.44
440.501	34.39
440.706	34.31
440.91	34.34
441.114	34.38
441.318	34.37
441.523	34.27
441.727	34.24
441.931	34.23
442.135	34.37
442.339	34.34
442.543	34.39
442.748	34.41
442.952	34.58
443.156	34.61
443.36	34.7
443.564	34.67
443.768	34.62
443.972	34.69
444.176	34.62
444.38	34.48
444.584	34.49
444.788	34.42
444.992	34.57
445.196	34.58
445.4	34.53
445.604	34.42
445.808	34.54
446.012	34.63
446.216	34.66
446.42	34.77
446.624	34.77
446.828	34.8
447.032	34.94
447.235	34.79
447.439	34.77
447.643	34.73
447.847	34.81
448.051	34.74
448.254	34.71
448.458	34.66
448.662	34.61
448.866	34.65
449.069	34.63
449.273	34.52
449.477	34.7
449.681	34.76
449.884	34.96
450.088	34.88
450.292	34.91
450.495	34.95
450.699	34.99
450.902	35.02
451.106	35.02
451.31	35.07
451.513	35.07
451.717	35.06
451.92	35
452.124	34.88
452.327	35.02
452.531	34.94
452.734	34.87
452.938	34.9
453.141	34.84
453.345	34.87
453.548	34.83
453.752	34.76
453.955	34.7
454.158	34.68
454.362	34.7
454.565	34.58
454.769	34.66
454.972	34.74
455.175	34.7
455.379	34.68
455.582	34.69
455.785	34.78
455.988	34.79
456.192	34.8
456.395	34.76
456.598	34.8
456.801	34.96
457.005	34.94
457.208	34.9
457.411	35.01
457.614	35.03
457.817	34.98
458.021	35.01
458.224	35.06
458.427	35.03
458.63	35.05
458.833	35
459.036	34.99
459.239	35.07
459.442	35.1
459.645	35.01
459.848	34.94
460.051	34.95
460.254	34.92
460.457	34.87
460.66	34.78
460.863	34.77
461.066	34.83
461.269	34.82
461.472	34.65
461.675	34.63
461.878	34.64
462.081	34.63
462.284	34.67
462.486	34.64
462.689	34.66
462.892	34.89
463.095	34.99
463.298	34.87
463.5	34.85
463.703	34.98
463.906	35.01
464.109	34.99
464.311	35.15
464.514	35.16
464.717	35.12
464.92	35.15
465.122	35.06
465.325	34.97
465.528	35.12
465.73	35.11
465.933	35.02
466.135	35.08
466.338	35.25
466.541	35.16
466.743	35.15
466.946	35.14
467.148	35.07
467.351	35.06
467.553	35.07
467.756	34.98
467.958	34.88
468.161	34.87
468.363	34.83
468.566	34.61
468.768	34.62
468.971	34.6
469.173	34.75
469.375	34.86
469.578	34.98
469.78	34.91
469.983	34.93
470.185	35.09
470.387	35.15
470.59	35.17
470.792	35.27
470.994	35.4
471.196	35.49
471.399	35.39
471.601	35.46
471.803	35.38
472.005	35.51
472.208	35.46
472.41	35.41
472.612	35.55
472.814	35.47
473.016	35.54
473.218	35.42
473.421	35.25
473.623	35.2
473.825	35.12
474.027	35.13
474.229	35.12
474.431	35.19
474.633	35.26
474.835	35.13
475.037	35.16
475.239	35.11
475.441	35.25
475.643	35.28
475.845	35.41
476.047	35.5
476.249	35.43
476.451	35.36
476.653	35.44
476.855	35.42
477.057	35.45
477.258	35.51
477.46	35.6
477.662	35.57
477.864	35.72
478.066	35.75
478.268	35.67
478.469	35.78
478.671	35.87
478.873	35.82
479.075	35.85
479.276	35.85
479.478	35.87
479.68	35.85
479.882	35.85
480.083	35.76
480.285	35.73
480.487	35.87
480.688	35.92
480.89	35.93
481.091	35.94
481.293	35.97
481.495	35.99
481.696	35.93
481.898	35.99
482.099	35.94
482.301	35.87
482.502	35.89
482.704	35.83
482.905	35.74
483.107	35.73
483.308	35.67
483.51	35.63
483.711	35.61
483.913	35.63
484.114	35.57
484.315	35.56
484.517	35.6
484.718	35.54
484.92	35.54
485.121	35.62
485.322	35.64
485.524	35.72
485.725	35.79
485.926	35.86
486.127	35.9
486.329	35.96
486.53	36.01
486.731	36.05
486.932	36.15
487.134	36.21
487.335	36.25
487.536	36.23
487.737	36.26
487.938	36.22
488.139	36.24
488.341	36.25
488.542	36.32
488.743	36.35
488.944	36.35
489.145	36.37
489.346	36.34
489.547	36.32
489.748	36.36
489.949	36.36
490.15	36.44
490.351	36.43
490.552	36.4
490.753	36.4
490.954	36.41
491.155	36.43
491.356	36.31
491.557	36.31
491.758	36.33
491.959	36.34
492.159	36.29
492.36	36.21
492.561	36.22
492.762	36.3
492.963	36.28
493.164	36.33
493.364	36.38
493.565	36.55
493.766	36.65
493.967	36.55
494.167	36.61
494.368	36.74
494.569	36.94
494.769	37.03
494.97	37.01
495.171	36.99
495.371	36.96
495.572	36.91
495.773	36.87
495.973	36.91
496.174	37.01
496.375	36.92
496.575	36.91
496.776	36.91
496.976	36.88
497.177	36.86
497.377	36.9
497.578	36.89
497.778	36.81
497.979	36.82
498.179	36.7
498.38	36.62
498.58	36.72
498.78	36.79
498.981	36.78
499.181	36.7
499.382	36.61
499.582	36.56
499.782	36.55
499.983	36.74
500.183	36.78
500.383	36.82
500.584	36.94
500.784	36.94
500.984	36.88
501.184	36.82
501.385	36.89
501.585	37.03
501.785	36.99
501.985	37.05
502.185	36.97
502.386	36.94
502.586	36.92
502.786	36.9
502.986	36.84
503.186	36.82
503.386	36.89
503.586	36.86
503.786	36.83
503.987	36.99
504.187	36.92
504.387	36.97
504.587	36.97
504.787	37.09
504.987	37.07
505.187	37.11
505.387	37.17
505.587	37.02
505.786	37.09
505.986	37.14
506.186	37.02
506.386	37.1
506.586	37.08
506.786	37.06
506.986	37.06
507.186	37.15
507.386	37.24
507.585	37.29
507.785	37.47
507.985	37.58
508.185	37.56
508.384	37.67
508.584	37.75
508.784	37.9
508.984	37.97
509.183	37.99
509.383	37.96
509.583	38
509.782	37.95
509.982	37.87
510.182	37.79
510.381	37.87
510.581	37.87
510.781	37.86
510.98	37.68
511.18	37.68
511.379	37.63
511.579	37.71
511.778	37.65
511.978	37.69
512.177	37.89
512.377	37.99
512.576	37.97
512.776	37.97
512.975	37.93
513.175	38
513.374	38.03
513.573	38.16
513.773	38.1
513.972	38.11
514.172	38.05
514.371	37.93
514.57	37.91
514.77	37.98
514.969	38.12
515.168	38.15
515.367	38.22
515.567	38.39
515.766	38.37
515.965	38.49
516.164	38.43
516.364	38.53
516.563	38.55
516.762	38.56
516.961	38.55
517.16	38.51
517.359	38.52
517.559	38.47
517.758	38.4
517.957	38.49
518.156	38.43
518.355	38.58
518.554	38.58
518.753	38.65
518.952	38.65
519.151	38.63
519.35	38.66
519.549	38.73
519.748	38.79
519.947	38.79
520.146	38.76
520.345	38.78
520.544	38.77
520.743	38.79
520.942	38.77
521.141	38.83
521.339	38.88
521.538	38.98
521.737	39.07
521.936	39.13
522.135	39.13
522.333	39.12
522.532	39.27
522.731	39.24
522.93	39.31
523.129	39.38
523.327	39.4
523.526	39.48
523.725	39.39
523.923	39.33
524.122	39.36
524.321	39.44
524.519	39.53
524.718	39.53
524.917	39.57
525.115	39.57
525.314	39.49
525.512	39.58
525.711	39.48
525.909	39.49
526.108	39.45
526.306	39.45
526.505	39.44
526.703	39.42
526.902	39.39
527.1	39.35
527.299	39.33
527.497	39.34
527.696	39.27
527.894	39.35
528.092	39.34
528.291	39.3
528.489	39.34
528.688	39.3
528.886	39.25
529.084	39.21
529.283	39.24
529.481	39.22
529.679	39.19
529.877	39.24
530.076	39.21
530.274	39.27
530.472	39.37
530.67	39.4
530.869	39.47
531.067	39.58
531.265	39.68
531.463	39.7
531.661	39.85
531.859	39.92
532.057	39.95
532.255	39.89
532.454	39.89
532.652	39.92
532.85	39.92
533.048	39.89
533.246	39.89
533.444	39.86
533.642	39.88
533.84	39.87
534.038	39.94
534.236	39.92
534.434	40.07
534.632	40.09
534.83	40.16
535.027	40.17
535.225	40.31
535.423	40.38
535.621	40.55
535.819	40.7
536.017	40.77
536.215	40.88
536.412	41
536.61	41.09
536.808	41.29
537.006	41.45
537.203	41.66
537.401	41.82
537.599	42.17
537.797	42.42
537.994	42.7
538.192	43.07
538.39	43.46
538.587	43.97
538.785	44.45
538.983	44.8
539.18	45.23
539.378	45.72
539.575	46.2
539.773	46.47
539.97	46.82
540.168	47.1
540.366	47.41
540.563	47.68
540.761	47.86
540.958	48.06
541.155	48.29
541.353	48.43
541.55	48.5
541.748	48.62
541.945	48.76
542.143	48.92
542.34	49.1
542.537	49.24
542.735	49.37
542.932	49.58
543.129	49.96
543.327	50.52
543.524	51.32
543.721	52.24
543.919	53.35
544.116	54.52
544.313	55.78
544.51	57
544.708	58.31
544.905	59.61
545.102	60.83
545.299	61.75
545.496	62.43
545.693	62.57
545.891	62.57
546.088	62.1
546.285	61.58
546.482	60.79
546.679	59.88
546.876	59.01
547.073	58.17
547.27	57.32
547.467	56.32
547.664	55.46
547.861	54.77
548.058	54.1
548.255	53.54
548.452	53.04
548.649	52.71
548.846	52.46
549.043	52.03
549.24	51.55
549.437	51.11
549.633	50.78
549.83	50.24
550.027	49.91
550.224	49.65
550.421	49.3
550.618	48.94
550.814	48.58
551.011	48.14
551.208	47.78
551.405	47.4
551.601	46.95
551.798	46.57
551.995	46.21
552.191	45.9
552.388	45.56
552.585	45.37
552.781	45.1
552.978	44.94
553.175	44.73
553.371	44.64
553.568	44.6
553.764	44.41
553.961	44.37
554.157	44.31
554.354	44.06
554.55	43.91
554.747	43.67
554.943	43.51
555.14	43.32
555.336	43.38
555.533	43.16
555.729	42.9
555.926	42.85
556.122	42.86
556.318	42.84
556.515	42.91
556.711	42.78
556.907	42.77
557.104	42.65
557.3	42.61
557.496	42.48
557.693	42.4
557.889	42.49
558.085	42.55
558.281	42.3
558.478	42.16
558.674	42.21
558.87	42.29
559.066	42.45
559.262	42.48
559.459	42.57
559.655	42.54
559.851	42.6
560.047	42.58
560.243	42.53
560.439	42.6
560.635	42.7
560.831	42.48
561.027	42.46
561.223	42.47
561.419	42.55
561.615	42.32
561.811	42.44
562.007	42.38
562.203	42.3
562.399	42.21
562.595	42.31
562.791	42.22
562.987	42.33
563.183	42.29
563.379	42.3
563.575	42.3
563.771	42.56
563.966	42.49
564.162	42.54
564.358	42.58
564.554	42.66
564.75	42.6
564.945	42.53
565.141	42.49
565.337	42.43
565.533	42.38
565.728	42.37
565.924	42.29
566.12	42.27
566.315	42.23
566.511	42.16
566.707	42.16
566.902	42.19
567.098	42.21
567.293	42.29
567.489	42.36
567.684	42.33
567.88	42.37
568.076	42.28
568.271	42.09
568.467	42.19
568.662	42.16
568.858	42.13
569.053	42.12
569.248	42.2
569.444	42.28
569.639	42.27
569.835	42.28
570.03	42.21
570.225	42.24
570.421	42.29
570.616	42.13
570.812	42.21
571.007	42.3
571.202	42.37
571.397	42.34
571.593	42.11
571.788	41.97
571.983	41.95
572.178	41.99
572.374	41.99
572.569	42.12
572.764	42.2
572.959	42.19
573.154	41.9
573.35	41.75
573.545	41.95
573.74	42.09
573.935	42.21
574.13	42.41
574.325	42.57
574.52	42.83
574.715	43.05
574.91	43.37
575.105	43.77
575.3	44.22
575.495	44.53
575.69	44.67
575.885	45.05
576.08	45.5
576.275	45.77
576.47	45.95
576.665	46.21
576.86	46.47
577.055	46.75
577.25	46.89
577.444	47.26
577.639	47.61
577.834	48.05
578.029	48.3
578.224	48.59
578.418	48.76
578.613	49.08
578.808	49.23
579.003	49.39
579.197	49.26
579.392	49.46
579.587	49.57
579.781	49.54
579.976	49.4
580.171	49.19
580.365	48.93
580.56	48.88
580.755	48.93
580.949	48.8
581.144	48.76
581.338	48.94
581.533	48.84
581.727	48.93
581.922	49.09
582.116	49.11
582.311	49.32
582.505	49.41
582.7	49.4
582.894	49.36
583.089	49.52
583.283	49.54
583.478	49.59
583.672	49.67
583.866	49.57
584.061	49.34
584.255	49.3
584.449	49.4
584.644	49.83
584.838	50.08
585.032	50.41
585.226	50.64
585.421	50.93
585.615	51.34
585.809	51.56
586.003	51.85
586.198	52.47
586.392	52.76
586.586	52.99
586.78	52.93
586.974	52.8
587.168	52.51
587.363	52.13
587.557	51.82
587.751	51.19
587.945	50.89
588.139	50.33
588.333	49.66
588.527	49.26
588.721	48.7
588.915	48.13
589.109	47.94
589.303	47.74
589.497	47.76
589.691	47.56
589.885	47.68
590.079	47.64
590.273	47.77
590.466	48.05
590.66	48.24
590.854	48.66
591.048	49.12
591.242	49.51
591.436	49.94
591.629	50.31
591.823	50.75
592.017	51.16
592.211	51.46
592.404	51.75
592.598	51.9
592.792	51.94
592.986	51.65
593.179	51.51
593.373	51.27
593.567	50.83
593.76	50.46
593.954	50.21
594.147	49.8
594.341	49.39
594.535	49
594.728	48.55
594.922	48.26
595.115	48.13
595.309	47.76
595.502	47.5
595.696	47.32
595.889	47.12
596.083	46.95
596.276	46.88
596.47	46.76
596.663	46.56
596.856	46.62
597.05	46.67
597.243	46.87
597.437	47.21
597.63	47.28
597.823	47.49
598.017	47.68
598.21	47.93
598.403	48.09
598.596	48.5
598.79	49.03
598.983	49.3
599.176	49.5
599.369	49.51
599.563	49.55
599.756	49.61
599.949	49.65
600.142	49.54
600.335	49.31
600.528	49.18
600.722	48.8
600.915	48.38
601.108	47.82
601.301	47.62
601.494	47.41
601.687	47.08
601.88	46.76
602.073	46.6
602.266	46.51
602.459	46.43
602.652	46.27
602.845	46.31
603.038	46.29
603.231	46.29
603.424	46.15
603.617	46.06
603.809	46.11
604.002	46.14
604.195	45.95
604.388	45.96
604.581	45.95
604.774	45.93
604.966	45.92
605.159	46.03
605.352	46.1
605.545	46.18
605.737	46.38
605.93	46.49
606.123	46.91
606.316	47.52
606.508	48.09
606.701	48.66
606.894	49.38
607.086	49.92
607.279	50.53
607.471	51.5
607.664	52.37
607.857	53.48
608.049	54.79
608.242	56.33
608.434	58.36
608.627	60.78
608.819	64.07
609.012	67.67
609.204	71.69
609.397	76.09
609.589	80.74
609.782	85.93
609.974	91.21
610.166	96.44
610.359	101.61
610.551	106.08
610.743	110.24
610.936	113.28
611.128	115.7
611.32	117.24
611.513	117.89
611.705	117.91
611.897	117.13
612.09	115.68
612.282	113.48
612.474	110.87
612.666	108.46
612.858	105.26
613.051	102.74
613.243	99.72
613.435	97.14
613.627	94.92
613.819	92.61
614.011	90.03
614.203	87.45
614.395	85.22
614.588	82.88
614.78	80.38
614.972	78.33
615.164	76.04
615.356	74.04
615.548	72.1
615.74	69.96
615.932	68.16
616.124	66.37
616.315	64.6
616.507	63.31
616.699	62.04
616.891	61.04
617.083	59.93
617.275	59.07
617.467	58.24
617.659	57.59
617.85	56.9
618.042	56.17
618.234	55.85
618.426	55.19
618.618	54.62
618.809	54.23
619.001	53.96
619.193	53.77
619.384	53.5
619.576	53.49
619.768	53.5
619.959	53.52
620.151	53.51
620.343	53.58
620.534	54.01
620.726	54.03
620.917	54.12
621.109	54.06
621.301	54.19
621.492	54.22
621.684	54.34
621.875	54.42
622.067	54.42
622.258	54.5
622.45	54.45
622.641	54.47
622.832	54.58
623.024	54.63
623.215	54.8
623.407	54.78
623.598	54.96
623.789	54.96
623.981	55.05
624.172	55.41
624.363	55.38
624.555	55.4
624.746	55.25
624.937	55.3
625.129	55.42
625.32	55.37
625.511	55.19
625.702	54.94
625.893	54.62
626.085	54.15
626.276	53.77
626.467	53.71
626.658	53.55
626.849	53.48
627.04	53.17
627.231	52.87
627.422	52.59
627.614	52.58
627.805	52.6
627.996	52.79
628.187	53.34
628.378	53.77
628.569	54.11
628.76	54.69
628.951	55.24
629.142	56.21
629.332	57.01
629.523	57.83
629.714	58.75
629.905	59.48
630.096	60.28
630.287	60.35
630.478	60.58
630.669	60.67
630.859	60.54
631.05	60.38
631.241	59.73
631.432	59.08
631.623	58.24
631.813	57.3
632.004	56.46
632.195	55.32
632.385	54.69
632.576	53.83
632.767	53.15
632.957	52.39
633.148	51.53
633.339	50.8
633.529	50.16
633.72	49.73
633.91	49.29
634.101	48.96
634.292	48.63
634.482	48.18
634.673	47.79
634.863	47.46
635.054	47.23
635.244	47.09
635.435	47.26
635.625	47.37
635.815	47.31
636.006	47.11
636.196	46.96
636.387	47.11
636.577	47.29
636.767	47.33
636.958	47.13
637.148	47.14
637.338	47.21
637.529	46.83
637.719	46.63
637.909	46.61
638.099	46.52
638.29	46.46
638.48	46.42
638.67	46.37
638.86	46.54
639.05	46.79
639.241	46.74
639.431	46.63
639.621	47.21
639.811	47.37
640.001	47.45
640.191	47.91
640.381	48.15
640.571	48.11
640.761	47.85
640.951	47.78
641.141	47.65
641.331	47.96
641.521	48.11
641.711	47.89
641.901	47.87
642.091	48
642.281	47.87
642.471	47.5
642.661	47.6
642.851	47.65
643.041	47.63
643.231	47.68
643.42	47.16
643.61	47.08
643.8	46.98
643.99	46.84
644.18	46.82
644.369	46.91
644.559	47.32
644.749	47.23
644.939	47.46
645.128	47.58
645.318	47.52
645.508	48.04
645.697	48.24
645.887	48.37
646.076	48.49
646.266	48.24
646.456	48.13
646.645	47.84
646.835	47.91
647.024	47.72
647.214	47.59
647.403	47.4
647.593	47.21
647.782	47.16
647.972	47.42
648.161	47.72
648.351	48.09
648.54	48.13
648.73	48.52
648.919	48.6
649.108	48.91
649.298	49.39
649.487	50.11
649.677	50.39
649.866	50.82
650.055	50.65
650.244	50.79
650.434	50.91
650.623	51.04
650.812	51.21
651.002	51.18
651.191	51.15
651.38	51.06
651.569	50.89
651.758	50.66
651.947	50.44
652.137	50.21
652.326	49.86
652.515	49.8
652.704	49.74
652.893	49.47
653.082	49.57
653.271	49.51
653.46	49.19
653.649	49.28
653.838	49.31
654.027	49.17
654.216	49.52
654.405	49.33
654.594	49.16
654.783	49.02
654.972	49.02
655.161	48.9
655.35	49.03
655.539	49.06
655.728	48.73
655.916	48.44
656.105	48.28
656.294	48.1
656.483	48.08
656.672	47.97
656.86	47.96
657.049	47.81
657.238	47.68
657.427	47.28
657.615	47.1
657.804	46.98
657.993	47.14
658.181	47.32
658.37	47.21
658.559	47.4
658.747	47.61
658.936	47.55
659.125	47.55
659.313	47.57
659.502	47.76
659.69	47.95
659.879	48.2
660.067	48.27
660.256	48.29
660.444	48.56
660.633	48.54
660.821	48.51
661.01	48.86
661.198	49.26
661.387	49.34
661.575	49.67
661.763	49.87
661.952	50.1
662.14	50.04
662.328	50.02
662.517	50.12
662.705	50.33
662.893	50.34
663.082	50.48
663.27	50.28
663.458	50.43
663.646	50.2
663.834	50.28
664.023	49.92
664.211	49.8
664.399	50.09
664.587	49.88
664.775	49.72
664.963	49.65
665.152	49.51
665.34	49.34
665.528	49.33
665.716	49.26
665.904	49.12
666.092	48.87
666.28	48.88
666.468	48.66
666.656	48.8
666.844	48.73
667.032	48.75
667.22	48.37
667.408	48.66
667.596	48.56
667.784	48.7
667.971	48.31
668.159	48.61
668.347	48.55
668.535	48.68
668.723	48.41
668.911	48.24
669.098	48.03
669.286	48.22
669.474	47.98
669.662	47.98
669.849	47.83
670.037	47.86
670.225	47.71
670.413	47.82
670.6	47.57
670.788	47.66
670.976	47.82
671.163	47.93
671.351	47.81
671.538	47.76
671.726	48.03
671.913	48.02
672.101	48.29
672.289	48.38
672.476	48.39
672.664	48.39
672.851	48.15
673.039	48.13
673.226	48.1
673.413	48.42
673.601	48.55
673.788	48.18
673.976	48.18
674.163	48.23
674.35	48.42
674.538	48.47
674.725	48.42
674.912	48.54
675.1	48.74
675.287	48.91
675.474	48.88
675.662	48.86
675.849	48.97
676.036	48.63
676.223	48.24
676.411	47.85
676.598	47.89
676.785	47.99
676.972	47.84
677.159	47.79
677.346	47.53
677.533	47.59
677.721	47.65
677.908	47.61
678.095	47.85
678.282	47.93
678.469	48.07
678.656	48.25
678.843	48.12
679.03	48.26
679.217	47.88
679.404	47.86
679.591	47.71
679.778	47.7
679.964	47.77
680.151	47.86
680.338	48.02
680.525	47.73
680.712	47.62
680.899	47.78
681.086	47.85
681.272	48.27
681.459	48.42
681.646	48.51
681.833	48.29
682.02	48.33
682.206	48.14
682.393	47.99
682.58	48.66
682.766	48.68
682.953	48.71
683.14	48.83
683.326	48.76
683.513	48.96
683.7	48.93
683.886	49.2
684.073	49.27
684.259	49.44
684.446	49.96
684.632	49.77
684.819	50.23
685.005	49.91
685.192	49.92
685.378	50.42
685.565	50.44
685.751	50.55
685.938	50.35
686.124	50.33
686.31	50.65
686.497	50.73
686.683	50.95
686.87	50.59
687.056	51.21
687.242	51.01
687.429	50.85
687.615	50.77
687.801	50.69
687.987	50.89
688.174	51.2
688.36	50.95
688.546	50.75
688.732	50.71
688.918	50.64
689.105	50.06
689.291	49.89
689.477	49.57
689.663	49.55
689.849	49.34
690.035	49.11
690.221	48.8
690.407	48.74
690.593	48.95
690.779	48.64
690.965	48.63
691.151	48.81
691.337	49.09
691.523	49
691.709	48.96
691.895	49.32
692.081	49.55
692.267	49.53
692.453	49.71
692.639	49.23
692.825	49.56
693.011	49.66
693.196	49.81
693.382	49.8
693.568	49.91
693.754	50.12
693.94	50.14
694.125	50
694.311	49.95
694.497	49.66
694.682	49.83
694.868	49.46
695.054	49.13
695.239	49.15
695.425	48.89
695.611	49.02
695.796	48.79
695.982	48.35
696.168	48.58
696.353	48.55
696.539	48.58
696.724	48.34
696.91	48.54
697.095	48.51
697.281	48.39
697.466	48.59
697.652	48.46
697.837	48.52
698.023	48.43
698.208	48.13
698.393	48.15
698.579	48.3
698.764	48.35
698.949	48.23
699.135	48.32
699.32	48.09
699.505	48.21
699.691	48.1
699.876	48.08
700.061	48.34
700.246	48.42
700.432	48.44
700.617	48.3
700.802	48.24
700.987	48.35
701.172	48.39
701.358	48.9
701.543	48.6
701.728	48.96
701.913	49.26
702.098	49.12
702.283	49.15
702.468	49.38
702.653	49.77
702.838	49.71
703.023	50.08
703.208	50.02
703.393	50.31
703.578	51.13
703.763	51.36
703.948	51.68
704.133	52.32
704.318	53.22
704.503	53.33
704.688	54.21
704.873	55.55
705.057	56.31
705.242	57.48
705.427	58.09
705.612	58.79
705.797	59.07
705.981	59.62
706.166	60.68
706.351	61.42
706.536	62.4
706.72	62.82
706.905	62.91
707.09	63.24
707.274	63.75
707.459	64.33
707.644	64.27
707.828	64.7
708.013	64.67
708.197	63.89
708.382	63.52
708.567	63.28
708.751	62.53
708.936	62.15
709.12	61.17
709.305	60.2
709.489	59.31
709.673	58.7
709.858	58.35
710.042	57.99
710.227	58.21
710.411	58.2
710.596	57.83
710.78	57.92
710.964	58.14
711.149	58.93
711.333	59.16
711.517	59.14
711.702	59.62
711.886	59.61
712.07	59.58
712.254	59.03
712.438	58.51
712.623	58.46
712.807	57.38
712.991	56.97
713.175	56.22
713.359	55.51
713.544	54.66
713.728	53.38
713.912	52.71
714.096	51.97
714.28	51.34
714.464	51.12
714.648	50.61
714.832	50.7
715.016	50.24
715.2	49.6
715.384	49.61
715.568	49.45
715.752	49.75
715.936	49.52
716.12	49.63
716.304	49.79
716.488	49.76
716.671	49.75
716.855	49.54
717.039	49.33
717.223	49.38
717.407	48.67
717.59	48.82
717.774	48.56
717.958	48.89
718.142	48.52
718.325	48.07
718.509	47.75
718.693	47.73
718.877	47.96
719.06	47.94
719.244	47.77
719.428	48.45
719.611	48.77
719.795	48.64
719.978	48.46
720.162	48.59
720.345	48.57
720.529	48.88
720.713	49.23
720.896	49.32
721.08	48.31
721.263	47.92
721.446	47.7
721.63	47.62
721.813	47.77
721.997	47.56
722.18	47.59
722.364	48.19
722.547	48.03
722.73	47.64
722.914	47.56
723.097	48.53
723.28	48.77
723.464	48.67
723.647	48.32
723.83	48.24
724.013	48.23
724.197	47.99
724.38	48.04
724.563	48.14
724.746	48
724.929	48.49
725.112	47.72
725.296	48.25
725.479	48.37
725.662	48.38
725.845	48.34
726.028	48.58
726.211	48.98
726.394	48.5
726.577	48.27
726.76	48.67
726.943	48.34
727.126	48.87
727.309	48.54
727.492	48.56
727.675	48.65
727.858	48.33
728.041	47.95
728.224	47.82
728.407	48.47
728.589	48.39
728.772	47.85
728.955	47.63
729.138	47.85
729.321	48.09
729.503	48.32
729.686	48.36
729.869	47.67
730.052	47.69
730.234	47.46
730.417	47.25
730.6	46.7
730.782	46.6
730.965	46.72
731.148	46.78
731.33	46.84
731.513	46.79
731.695	47.16
731.878	48.26
732.061	48.56
732.243	48.64
732.426	48.8
732.608	48.99
732.791	49.23
732.973	49.7
733.156	49.77
733.338	49.77
733.52	49.54
733.703	49.46
733.885	49.3
734.068	49.4
734.25	49.84
734.432	49.94
734.615	50.01
734.797	49.75
734.979	49.54
735.162	50.05
735.344	50.02
735.526	50.05
735.708	49.61
735.891	49.33
736.073	48.94
736.255	48.43
736.437	48.1
736.619	48.77
736.802	48.73
736.984	48.4
737.166	47.95
737.348	48.14
737.53	48.66
737.712	48.84
737.894	49.57
738.076	49.5
738.258	49.57
738.44	49.52
738.622	49.27
738.804	50.4
738.986	49.81
739.168	49.36
739.35	48.72
739.532	48.89
739.714	49.04
739.896	48.84
740.078	49.66
740.259	49.65
740.441	49.54
740.623	49.32
740.805	48.52
740.987	48.71
741.168	49.05
741.35	49.48
741.532	49.04
741.714	49.43
741.895	49.42
742.077	49.15
742.259	49.33
742.44	49.4
742.622	49.42
742.804	49.43
742.985	50.52
743.167	49.87
743.348	50.27
743.53	50.43
743.711	49.85
743.893	50.28
744.075	49.23
744.256	49.3
744.438	49.95
744.619	50.61
744.8	49.87
744.982	49.4
745.163	49.85
745.345	49.41
745.526	50.04
745.707	50.36
745.889	50.53
746.07	51.23
746.252	50.77
746.433	50.22
746.614	49.93
746.795	50.18
746.977	50.21
747.158	50.83
747.339	51.24
747.52	50.04
747.702	49.23
747.883	48.84
748.064	49.14
748.245	49.31
748.426	48.77
748.607	48.5
748.788	49.62
748.97	49.53
749.151	49.23
749.332	49.69
749.513	50.83
749.694	51.31
749.875	51.17
750.056	50.61
750.237	50.42
750.418	50.35
750.599	50.48
750.78	49.62
750.96	49.24
751.141	49.49
751.322	48.81
751.503	48.33
751.684	49.13
751.865	48.84
752.046	49.16
752.226	49.42
752.407	50.6
752.588	50.59
752.769	51.05
752.949	51.52
753.13	50.51
753.311	50.36
753.492	49.95
753.672	49.41
753.853	49.96
754.034	50.21
754.214	50.44
754.395	49.6
754.575	49.68
754.756	49.51
754.937	49.72
755.117	50.33
755.298	49.91
755.478	50.03
755.659	49.57
755.839	49.24
756.02	48.96
756.2	48.93
756.381	49.03
756.561	48.49
756.741	49
756.922	48.23
757.102	47.61
757.283	47.77
757.463	46.59
757.643	46.47
757.823	46.73
758.004	46.85
758.184	47.4
758.364	47.47
758.545	46.92
758.725	46.7
758.905	46.94
759.085	46.93
759.265	46.92
759.446	48.15
759.626	47.73
759.806	46.93
759.986	46.29
760.166	45.46
760.346	44.65
760.526	44.77
760.706	44.06
760.886	43.84
761.066	44.16
761.246	43.59
761.426	43.23
761.606	43.16
761.786	44.29
761.966	44.73
762.146	44.66
762.326	45.12
762.506	45.35
762.686	45.24
762.866	45.46
763.046	45.71
763.225	46.03
763.405	46.07
763.585	46.48
763.765	45.82
763.945	45.62
764.124	45.4
764.304	45.47
764.484	45.47
764.664	45.89
764.843	45.63
765.023	45.65
765.203	45.42
765.382	45.1
765.562	45.08
765.741	45.21
765.921	45.46
766.101	45.81
766.28	46.21
766.46	46.55
766.639	45.63
766.819	45.63
766.998	45.92
767.178	46.14
767.357	46.83
767.537	46.9
767.716	46.66
767.896	46.63
768.075	46.4
768.254	45.97
768.434	46.37
768.613	47.54
768.792	49.23
768.972	48.98
769.151	49.11
769.33	49.09
769.51	48.33
769.689	48.96
769.868	48.71
770.047	49.85
770.226	50.08
770.406	50.18
770.585	50.2
770.764	49.39
770.943	49.25
771.122	50.56
771.301	51.02
771.48	51.78
771.66	51.13
771.839	51.98
772.018	51.3
772.197	51.34
772.376	52.15
772.555	51.86
772.734	51.09
772.913	50.98
773.092	50.38
773.271	49.65
773.449	49.74
773.628	50.25
773.807	49.62
773.986	49.39
774.165	48.81
774.344	47.96
774.523	48.6
774.701	49.73
774.88	49.85
775.059	50.16
775.238	50.6
775.417	50.32
775.595	49.77
775.774	49.54
775.953	49.55
776.131	50.37
776.31	50.73
776.489	49.03
776.667	48.72
776.846	48.57
777.025	47.88
777.203	47.13
777.382	48.14
777.56	49.24
777.739	49.91
777.917	50.01
778.096	50.28
778.274	49.28
778.453	50.69
778.631	49.27
778.81	48.86
778.988	48.92
779.166	48.98
779.345	48.18
779.523	47.5
779.702	47.66
779.88	48.66
780.058	47.69
780.237	48.25
780.415	47.57
780.593	48.76
780.771	50.29
780.95	49.45
781.128	50.34
781.306	49.88
781.484	49.87
781.662	49.68
781.841	48.86
782.019	48.77
782.197	48.95
782.375	49.9
782.553	50.45
782.731	50.1
782.909	51.61
783.087	50.96
783.265	51.33
783.443	50.97
783.621	50.05
783.799	49.67
783.977	50.2
784.155	49.15
784.333	47.98
784.511	48.5
784.689	47.14
784.867	46.03
785.045	46.18
785.223	46.77
785.4	47.54
785.578	47.16
785.756	47.37
785.934	47.06
786.112	46.7
786.289	46.55
786.467	44.51
786.645	44.27
786.823	44.71
787	44.14
787.178	44.92
787.356	45.25
787.533	46.86
787.711	47.12
787.889	47.64
788.066	48.61
788.244	48.68
788.421	49.87
788.599	50.22
788.776	49.62
788.954	48.95
789.131	47.79
789.309	46.48
789.486	45.71
789.664	45.7
789.841	45.14
790.019	43.97
790.196	43.83
790.373	42.39
790.551	42.27
790.728	42.11
790.906	42.66
791.083	43.22
791.26	43.77
791.437	44.16
791.615	43.97
791.792	42.64
791.969	44.91
792.146	45.49
792.324	45.28
792.501	44.21
792.678	44.52
792.855	44.69
793.032	45.21
793.209	46.21
793.387	43.93
793.564	44.11
793.741	45.44
793.918	44.37
794.095	44.17
794.272	45.85
794.449	47.9
794.626	47.56
794.803	48.37
794.98	47.17
795.157	47.85
795.334	49.61
795.511	49.12
795.688	49.08
795.864	48.28
796.041	47.63
796.218	46.76
796.395	46.74
796.572	47.13
796.749	46.3
796.925	46.66
797.102	46.01
797.279	45.28
797.456	46.31
797.632	46.37
797.809	46.16
797.986	46.61
798.162	47.97
798.339	47.62
798.516	46.75
798.692	46.67
798.869	46.15
799.046	45.23
799.222	45.5
799.399	44.38
799.575	43.37
799.752	44.58
799.928	44.66
800.105	43.15
800.281	42.21
800.458	41.71
800.634	43
800.811	43.44
800.987	44.11
801.163	44.39
801.34	44.55
801.516	44.63
801.692	43.29
801.869	43.42
802.045	44.15
802.221	44.84
802.398	46.42
802.574	45.97
802.75	46.14
802.926	46.11
803.103	47.15
803.279	46.23
803.455	47.56
803.631	48.21
803.807	48.24
803.983	47.43
804.16	46.92
804.336	46.48
804.512	46.07
804.688	45.65
804.864	44.2
805.04	44.87
805.216	46.44
805.392	46.44
805.568	46.16
805.744	46.38
805.92	46.34
806.096	45.95
806.272	45.22
806.448	44.33
806.623	43.49
806.799	43.87
806.975	42.09
807.151	40.62
807.327	39.79
807.503	40.41
807.678	40.91
807.854	42.32
808.03	41.99
808.206	41.98
808.381	41.26
808.557	42.25
808.733	42.75
808.908	42.24
809.084	43.68
809.26	44.1
809.435	44.42
809.611	43.89
809.787	42.55
809.962	44.2
810.138	45.08
810.313	46.55
810.489	48.26
810.664	48.83
810.84	50.39
811.015	49.14
811.191	49.48
811.366	47.94
811.542	48.36
811.717	49.08
811.892	48.8
812.068	48.31
812.243	46.65
812.419	45.72
812.594	42.26
812.769	40.01
812.944	40.34
813.12	38.94
813.295	38.51
813.47	36.26
813.645	35.71
813.821	33.67
813.996	36.03
814.171	37.38
814.346	35.52
814.521	38.91
814.697	41.41
814.872	41.85
815.047	42.42
815.222	42.85
815.397	45.15
815.572	44.45
815.747	45.04
815.922	44.1
816.097	44.35
816.272	45.47
816.447	43.93
816.622	44.61
816.797	44.04
816.972	43.38
817.147	44.56
817.322	44.54
817.496	45
817.671	44.23
817.846	43.47
818.021	42.41
818.196	42.62
818.371	42.92
818.545	41.91
818.72	42.51
818.895	43.32
819.069	42.96
819.244	41.7
819.419	40.33
819.594	41.93
819.768	41.94
819.943	42.31
820.117	42.12
820.292	42.56
820.467	41.71
820.641	42.04
820.816	42.31
820.99	42.1
821.165	42.42
821.339	43.21
821.514	42.79
821.688	43.18
821.863	43.35
822.037	43.44
822.212	43.09
822.386	42.71
822.56	42.43
822.735	42.19
822.909	42.09
823.084	42.05
823.258	41.8
823.432	41.92
823.606	41.5
823.781	41.13
823.955	40.69
824.129	40.4
824.303	40.78
824.478	40.83
824.652	40.66
824.826	40.86
825	40.65
825.174	40.57
825.348	40.05
825.523	40.31
825.697	40.15
825.871	40
826.045	41.04
826.219	41.03
826.393	41.4
826.567	41.41
826.741	41.75
826.915	41.61
827.089	41.86
827.263	42.62
827.437	42.95
827.611	43.45
827.784	43.7
827.958	43.19
828.132	42.85
828.306	42.09
828.48	42.68
828.654	42.13
828.827	42.38
829.001	42.69
829.175	41.72
829.349	40.77
829.522	40.47
829.696	40.56
829.87	40.01
830.044	39.99
830.217	41.2
830.391	40.79
830.565	40.75
830.738	40.88
830.912	39.52
831.085	40.88
831.259	41.68
831.432	41.78
831.606	42.9
831.779	43.94
831.953	42.93
832.126	41.66
832.3	41.16
832.473	40.33
832.647	40.35
832.82	40.29
832.994	39.45
833.167	38.62
833.34	38.77
833.514	38.43
833.687	38.12
833.86	39.28
834.034	38.97
834.207	39.22
834.38	38.79
834.553	38.8
834.727	38.95
834.9	38.52
835.073	38.59
835.246	38.56
835.419	37.18
835.593	37.47
835.766	36.63
835.939	37.33
836.112	36.64
836.285	38.36
836.458	37.69
836.631	38.34
836.804	39.72
836.977	41.55
837.15	40.55
837.323	44.2
837.496	45.93
837.669	46.13
837.842	45.06
838.015	44.51
838.188	43.29
838.361	44.92
838.533	43.79
838.706	44.11
838.879	41.22
839.052	44
839.225	40.24
839.398	39.07
839.57	39.22
839.743	39.06
839.916	40.65
840.088	42.17
840.261	40.8
840.434	40.6
840.607	40.61
840.779	41.35
840.952	39.78
841.124	42.82
841.297	41.18
841.47	42.97
841.642	45.25
841.815	44.45
841.987	44.46
842.16	45.76
842.332	45.83
842.505	45.08
842.677	46.79
842.85	47.13
843.022	45.23
843.194	45.35
843.367	43.62
843.539	39.98
843.712	40.6
843.884	39.69
844.056	39.8
844.229	40.59
844.401	43.38
844.573	39.8
844.745	41.09
844.918	41.68
845.09	44.15
845.262	44.9
845.434	50.5
845.606	51.88
845.779	55.25
845.951	53.77
846.123	55.81
846.295	54.28
846.467	55.57
846.639	58.95
846.811	57.45
846.983	59.03
847.155	58.08
847.327	50.9
847.499	49.83
847.671	46.04
847.843	48.16
848.015	46.73
848.187	45.94
848.359	45.2
848.531	42.99
848.703	44.65
848.875	43.95
849.047	42.82
849.218	45.59
849.39	49.15
849.562	50.84
849.734	50.63
849.905	53.65
850.077	52.71
850.249	54.53
850.421	51.1
850.592	51.59
850.764	48.59
850.936	47.7
851.107	51.92
851.279	47.56
851.451	45.43
851.622	43.33
851.794	37.61
851.965	38.45
852.137	33.8
852.308	36.11
852.48	28.19
852.651	29.74
852.823	36.06
852.994	35.62
853.166	38.06
853.337	45.21
853.509	48.55
853.68	50.56
853.851	53.53
854.023	54.91
854.194	57.43
854.365	63.24
854.537	62.57
854.708	62.09
854.879	61.24
855.05	56.27
855.222	50.12
855.393	48.29
855.564	52.67
855.735	48.32
855.906	50.15
856.078	45.06
856.249	43.02
856.42	43.7
856.591	46.72
856.762	45.12
856.933	50.24
857.104	51.94
857.275	52.5
857.446	44.17
857.617	45.19
857.788	45.31
857.959	45.45
858.13	46
858.301	49.88
858.472	45.37
858.643	42.9
858.814	42.85
858.985	38.73
859.155	39.04
859.326	40.63
859.497	42.98
859.668	43.09
859.839	44.99
860.009	41.92
860.18	39.02
860.351	41.44
860.522	44.91
860.692	41.08
860.863	40.29
861.034	42.38
861.204	46.67
861.375	41.35
861.546	39.95
861.716	43.26
861.887	46.68
862.057	49.93
862.228	44.02
862.398	40.34
862.569	41.3
862.739	39.56
862.91	40.4
863.08	39.15
863.251	40.03
863.421	43.75
863.592	39.79
863.762	41.24
863.932	35.9
864.103	34.24
864.273	39.17
864.443	43.66
864.614	47.64
864.784	41.01
864.954	39.81
865.125	44.73
865.295	44.21
865.465	47.16
865.635	43.95
865.805	45
865.976	50.35
866.146	47.92
866.316	45.46
866.486	50.52
866.656	54.29
866.826	46.91
866.996	46.73
867.166	47.45
867.336	40.68
867.506	48.86
867.676	48.65
867.846	46.62
868.016	45.63
868.186	43.54
868.356	38.55
868.526	37.48
868.696	43.06
868.866	37.19
869.036	32.5
869.206	34.46
869.376	32.51
869.545	27.34
869.715	25.67
869.885	24.28
870.055	25.4
870.224	25.68
870.394	27.74
870.564	29.38
870.734	29.38
870.903	31.67
871.073	30.21
871.243	27.01
871.412	32.56
871.582	40.13
871.751	45.58
871.921	45.6
872.091	44.11
872.26	45.06
872.43	46.31
872.599	50.92
872.769	52.61
872.938	53.65
873.108	52.51
873.277	47.19
873.446	44.11
873.616	44.42
873.785	46.91
873.955	48.74
874.124	48.06
874.293	42.18
874.463	39.77
874.632	40.38
874.801	43.66
874.971	44.96
875.14	42.94
875.309	42.29
875.478	40.47
875.647	39.32
875.817	42.48
875.986	39.32
876.155	47.73
876.324	48.6
876.493	47.39
876.662	46.69
876.831	49.84
877	53.33
877.17	53.99
877.339	53.93
877.508	52.91
877.677	51.26
877.846	51.9
878.015	50.59
878.184	46.28
878.352	46.22
878.521	44.47
878.69	38.64
878.859	42.19
879.028	37.42
879.197	36.08
879.366	35.63
879.534	34.98
879.703	34.6
879.872	33.63
880.041	35.07
880.21	35.2
880.378	35.11
880.547	35.28
880.716	34.2
880.884	35.1
881.053	35.85
881.222	35.48
881.39	34.72
881.559	33.65
881.727	33.89
881.896	33.37
882.065	32.94
882.233	33
882.402	32.88
882.57	32.9
882.739	33.13
882.907	32.65
883.076	31.98
883.244	32.66
883.412	33.1
883.581	32.45
883.749	32.61
883.918	32.73
884.086	32.62
884.254	32.75
884.423	33.83
884.591	33.62
884.759	34
884.927	34.7
885.096	33.53
885.264	34.57
885.432	35.45
885.6	35.82
885.769	36.35
885.937	38.63
886.105	39.72
886.273	36.78
886.441	36.67
886.609	35.48
886.777	38
886.945	38.54
887.113	36.66
887.281	33.88
887.449	34.1
887.617	31.19
887.785	26.66
887.953	27.06
888.121	30.52
888.289	32.75
888.457	37.77
888.625	35.23
888.793	37.42
888.961	36.55
889.129	39.82
889.296	42.28
889.464	46.93
889.632	50.8
889.8	51.71
889.967	48.89
890.135	46.35
