Data from 2938729__Reflection_02.txt Node
Date: Sun Mar 15 19:06:38 EDT 2015
User: robert
Spectrometer: USB4E03002
Autoset integration time: false
Trigger mode: 4
Integration Time (sec): 1.000000E-1
Scans to average: 10
Electric dark correction enabled: false
Nonlinearity correction enabled: false
Boxcar width: 5
Stray light correction enabled: false
XAxis mode: Wavelengths
Stop averaging: false
Number of Pixels in Spectrum: 3648
>>>>>Begin Spectral Data<<<<<
177.575	-240.22
177.794	-104.18
178.014	-176.12
178.233	-171.03
178.452	-150.43
178.672	-112.35
178.891	-108.79
179.11	-131.85
179.33	-365.22
179.549	-1464.29
179.768	-416.13
179.987	16.53
180.207	171.23
180.426	328.57
180.645	-37.65
180.864	67.9
181.084	32.95
181.303	31.95
181.522	29.27
181.741	44
181.96	-0.54
182.179	91.41
182.398	96.3
182.618	134.96
182.837	96.61
183.056	171.17
183.275	153.12
183.494	165.76
183.713	131.67
183.932	147.31
184.151	169.63
184.37	144.86
184.589	197.94
184.808	154.72
185.027	102.41
185.246	97.24
185.465	59.5
185.684	83.99
185.903	92.5
186.122	363.46
186.341	223.7
186.56	210.83
186.779	-164.44
186.998	472
187.216	2828.57
187.435	-404.44
187.654	-24400
187.873	-49.79
188.092	-174.03
188.311	-1202.94
188.53	-1507.41
188.748	1538.46
188.967	780.7
189.186	390.16
189.405	487.96
189.623	539.29
189.842	690.91
190.061	1766.67
190.28	582.86
190.498	278.87
190.717	98.29
190.936	54.17
191.154	73.64
191.373	73.47
191.592	79.71
191.81	33.08
192.029	114.86
192.248	78.44
192.466	101.86
192.685	116.05
192.904	130.08
193.122	189.57
193.341	201.24
193.559	143.23
193.778	117.14
193.996	122.15
194.215	488.61
194.433	322.39
194.652	337.84
194.87	1463.64
195.089	-21.71
195.307	107.69
195.526	29.41
195.744	66.18
195.963	97.51
196.181	170.45
196.399	188.24
196.618	642.19
196.836	-2440
197.055	-259.26
197.273	-123.36
197.491	3.7
197.71	-23.43
197.928	-17.13
198.146	22.38
198.365	75.31
198.583	131.97
198.801	145.11
199.019	167.7
199.238	91.35
199.456	121.43
199.674	149.65
199.892	96.7
200.111	157.02
200.329	168.53
200.547	161.28
200.765	319.47
200.983	314.15
201.202	376.81
201.42	174.06
201.638	246.92
201.856	73.39
202.074	87.68
202.292	116.39
202.51	140.1
202.728	156.35
202.946	71.1
203.165	0.47
203.383	-70.85
203.601	-0.93
203.819	-35.08
204.037	4.24
204.255	-139.39
204.473	-163.21
204.691	-54.46
204.909	-100.48
205.127	-228.83
205.345	-250.42
205.562	-293.06
205.78	63.97
205.998	404.76
206.216	6.02
206.434	34.44
206.652	100.88
206.87	50.29
207.088	44.16
207.306	55.27
207.523	48.66
207.741	63.99
207.959	61.17
208.177	47.03
208.395	59.06
208.612	63.93
208.83	65.53
209.048	67.14
209.266	80.13
209.483	91.8
209.701	84
209.919	101.07
210.136	104.46
210.354	77.62
210.572	99.14
210.79	87.6
211.007	64.71
211.225	64.33
211.442	47.81
211.66	34.25
211.878	31.28
212.095	26.55
212.313	26.23
212.53	15.61
212.748	24.13
212.966	19.43
213.183	13.59
213.401	17.34
213.618	22.33
213.836	32.99
214.053	39.91
214.271	33.33
214.488	49.89
214.705	53.81
214.923	56.85
215.14	47.95
215.358	42.32
215.575	49.78
215.793	35.8
216.01	20
216.227	-46.45
216.445	7.41
216.662	35.53
216.879	7.2
217.097	-17.12
217.314	5.18
217.531	35.03
217.749	28.8
217.966	31.23
218.183	37.85
218.4	14.72
218.618	17.27
218.835	19.27
219.052	-7.27
219.269	12.91
219.487	26.11
219.704	-3.1
219.921	-22.66
220.138	5.83
220.355	2.83
220.572	6.23
220.79	21.43
221.007	11.79
221.224	5.24
221.441	6.13
221.658	-3.19
221.875	0.41
222.092	5.96
222.309	5.96
222.526	6.74
222.743	8.52
222.96	10.84
223.177	12.54
223.394	29
223.611	32.53
223.828	33.66
224.045	41.28
224.262	33.52
224.479	35.15
224.696	33.83
224.913	34.55
225.13	30.15
225.347	18.57
225.564	15.46
225.781	10.94
225.997	7.33
226.214	10.81
226.431	9.9
226.648	7.74
226.865	7.68
227.082	8.24
227.298	6.25
227.515	7.79
227.732	8.4
227.949	8.13
228.165	7.61
228.382	7.53
228.599	7.64
228.816	6.44
229.032	7.44
229.249	6.47
229.466	5.89
229.682	5.08
229.899	4.63
230.116	5.92
230.332	6.11
230.549	4.83
230.765	5.17
230.982	5.04
231.199	4.43
231.415	3.24
231.632	3.82
231.848	2.89
232.065	3.21
232.281	2.6
232.498	0.31
232.714	0.15
232.931	1.59
233.147	1.16
233.364	1.05
233.58	2.97
233.797	2.63
234.013	2.96
234.23	2.47
234.446	5.3
234.662	6.48
234.879	6.31
235.095	5.22
235.312	4.54
235.528	4.74
235.744	2.51
235.961	0.92
236.177	1.88
236.393	1.65
236.61	1.84
236.826	1.45
237.042	-0.42
237.258	0.27
237.475	1.21
237.691	0.98
237.907	-0.03
238.123	0.71
238.339	2.79
238.556	2.37
238.772	4.42
238.988	5.6
239.204	6.25
239.42	6.15
239.636	4.95
239.853	3.19
240.069	3.26
240.285	3.31
240.501	2.62
240.717	2.35
240.933	2.85
241.149	2.41
241.365	2.27
241.581	1.97
241.797	2.14
242.013	2.3
242.229	3.19
242.445	3.54
242.661	3.68
242.877	4.47
243.093	4.65
243.309	4.39
243.525	3.86
243.741	3.55
243.957	3.41
244.173	4.18
244.388	4.08
244.604	3.23
244.82	3.31
245.036	3.64
245.252	3.62
245.468	2.88
245.683	2.68
245.899	3.19
246.115	3.46
246.331	3.38
246.547	2.97
246.762	2.73
246.978	3.14
247.194	2.68
247.409	2.38
247.625	2.24
247.841	2.72
248.057	3.08
248.272	3.09
248.488	3.07
248.703	2.94
248.919	3.32
249.135	4.13
249.35	4.16
249.566	5.31
249.782	6.09
249.997	6.72
250.213	7.17
250.428	6.59
250.644	7.38
250.859	7.16
251.075	7.22
251.29	6.44
251.506	5.38
251.721	4.9
251.937	4.32
252.152	3.88
252.368	2.99
252.583	2.28
252.798	2.4
253.014	1.07
253.229	1.01
253.445	0.92
253.66	1.49
253.875	2.91
254.091	3.51
254.306	3.61
254.521	3.1
254.737	3.94
254.952	3.09
255.167	4.03
255.383	4.94
255.598	5.84
255.813	5.91
256.028	5.45
256.244	4.07
256.459	3.57
256.674	3.73
256.889	4.36
257.104	3.23
257.32	3.91
257.535	2.96
257.75	3.51
257.965	3.66
258.18	3.33
258.395	3.22
258.61	3.07
258.826	3.22
259.041	2.8
259.256	2.99
259.471	3.2
259.686	3.28
259.901	3.35
260.116	2.8
260.331	2.56
260.546	2.74
260.761	2.68
260.976	3.01
261.191	2.63
261.406	2.96
261.621	2.92
261.836	3.02
262.05	2.76
262.265	2.64
262.48	3.4
262.695	3.37
262.91	3.15
263.125	3.24
263.34	2.43
263.555	2.97
263.769	2.37
263.984	1.88
264.199	1.32
264.414	1.07
264.629	0.98
264.843	0.74
265.058	0.15
265.273	0.83
265.488	1.1
265.702	1.4
265.917	1.15
266.132	0.99
266.346	0.69
266.561	1.61
266.776	2.54
266.99	2.4
267.205	1.89
267.42	2.38
267.634	1.87
267.849	1.51
268.063	1.37
268.278	1.66
268.492	1.63
268.707	1.72
268.922	1.74
269.136	0.63
269.351	1.02
269.565	0.69
269.78	0.36
269.994	0.55
270.209	0.77
270.423	1.51
270.637	1.92
270.852	1.88
271.066	2.4
271.281	2.25
271.495	2.61
271.709	2.72
271.924	2.98
272.138	3.11
272.353	2.81
272.567	2.89
272.781	2.8
272.996	2.35
273.21	2.7
273.424	2.59
273.638	2.5
273.853	2.61
274.067	2.03
274.281	2.04
274.495	2.16
274.71	2.03
274.924	1.93
275.138	1.5
275.352	1.6
275.566	1.23
275.781	0.98
275.995	1.33
276.209	0.76
276.423	1.19
276.637	1.79
276.851	2.17
277.065	2.66
277.279	2.48
277.493	2.91
277.707	3.21
277.921	3.72
278.135	3.9
278.349	3.92
278.563	4.27
278.777	4.28
278.991	3.24
279.205	2.95
279.419	2.72
279.633	2.8
279.847	2.7
280.061	1.96
280.275	2.24
280.489	1.97
280.703	1.99
280.917	1.96
281.131	1.62
281.344	2.28
281.558	2.16
281.772	2.09
281.986	2.08
282.2	1.95
282.414	1.89
282.627	1.77
282.841	2.27
283.055	2.13
283.269	2.05
283.482	2.28
283.696	2.05
283.91	1.52
284.123	2.08
284.337	2.13
284.551	2.46
284.764	2.88
284.978	2.65
285.192	2.2
285.405	2.05
285.619	2.06
285.833	1.91
286.046	1.79
286.26	2.09
286.473	1.84
286.687	1.99
286.9	1.83
287.114	1.53
287.327	1.82
287.541	2.05
287.754	2.12
287.968	2.05
288.181	2.69
288.395	2.85
288.608	2.92
288.822	2.91
289.035	2.6
289.248	2.47
289.462	2.8
289.675	2.55
289.889	2.23
290.102	2.04
290.315	1.8
290.529	1.54
290.742	1.59
290.955	1.85
291.169	2.21
291.382	2.38
291.595	2.18
291.808	2.15
292.022	1.85
292.235	2
292.448	2.15
292.661	2.79
292.875	2.77
293.088	3.14
293.301	3.09
293.514	2.79
293.727	2.69
293.94	3.22
294.153	2.76
294.367	2.79
294.58	3.05
294.793	3.13
295.006	3.17
295.219	2.77
295.432	2.63
295.645	2.55
295.858	2.22
296.071	2.23
296.284	2.08
296.497	2.29
296.71	2.39
296.923	2.43
297.136	2.4
297.349	2.38
297.562	2.68
297.775	2.78
297.988	2.55
298.201	2.7
298.414	2.73
298.626	2.74
298.839	2.95
299.052	3.19
299.265	3.21
299.478	3.23
299.691	3.21
299.903	3.45
300.116	3.41
300.329	3.6
300.542	3.68
300.755	3.61
300.967	3.56
301.18	3.38
301.393	3.22
301.605	3.02
301.818	2.67
302.031	2.65
302.243	2.45
302.456	2.37
302.669	2.53
302.881	2.53
303.094	2.63
303.307	2.65
303.519	2.51
303.732	2.87
303.944	2.91
304.157	3.03
304.37	3.15
304.582	3.04
304.795	2.7
305.007	2.58
305.22	2.55
305.432	2.8
305.645	2.79
305.857	2.95
306.069	2.33
306.282	2.21
306.494	2.19
306.707	1.65
306.919	1.7
307.132	2.08
307.344	2.06
307.556	2.2
307.769	2.18
307.981	2.39
308.193	2.55
308.406	3.13
308.618	3
308.83	3.22
309.043	3.4
309.255	3.24
309.467	3.18
309.679	3.17
309.892	3.1
310.104	2.95
310.316	3.06
310.528	2.98
310.74	2.81
310.953	2.96
311.165	2.92
311.377	3.1
311.589	2.93
311.801	3.07
312.013	3.29
312.225	3.59
312.437	3.66
312.649	3.52
312.862	3.6
313.074	3.69
313.286	3.68
313.498	3.58
313.71	3.53
313.922	3.93
314.134	3.59
314.346	3.44
314.558	2.87
314.77	2.9
314.982	2.87
315.193	2.69
315.405	2.26
315.617	2.19
315.829	2.64
316.041	2.61
316.253	2.5
316.465	3.01
316.677	2.82
316.888	3.58
317.1	3.37
317.312	3.31
317.524	3.28
317.736	3.25
317.947	3.86
318.159	4.03
318.371	3.82
318.583	4.35
318.794	4.45
319.006	4.78
319.218	4.35
319.43	4.76
319.641	5.01
319.853	5.68
320.064	5.83
320.276	5.14
320.488	5.07
320.699	5.53
320.911	5.3
321.123	4.6
321.334	4.62
321.546	4.24
321.757	4.26
321.969	3.57
322.18	3.26
322.392	4.13
322.603	4.57
322.815	3.84
323.026	4.01
323.238	4.46
323.449	5.26
323.661	5.45
323.872	6.5
324.083	6.47
324.295	7.42
324.506	7.53
324.718	7.6
324.929	7.75
325.14	8.82
325.352	8.9
325.563	8.81
325.774	8.93
325.986	9.16
326.197	9.26
326.408	9.97
326.62	9.88
326.831	10.39
327.042	10.47
327.253	11.43
327.464	11.56
327.676	11.75
327.887	12.51
328.098	12.96
328.309	13.5
328.52	14.01
328.732	14.51
328.943	14.75
329.154	15.37
329.365	16
329.576	15.92
329.787	16.04
329.998	16.82
330.209	16.74
330.42	17.44
330.631	17.84
330.842	18.1
331.053	18.38
331.264	19.49
331.475	19.62
331.686	19.77
331.897	20.88
332.108	22.02
332.319	22.34
332.53	23.15
332.741	23.49
332.952	24.01
333.163	24.62
333.374	24.89
333.585	24.97
333.795	25.71
334.006	26.15
334.217	26.04
334.428	26.01
334.639	26.82
334.849	27.09
335.06	27.36
335.271	27.7
335.482	27.69
335.692	27.93
335.903	28.03
336.114	27.87
336.325	28.5
336.535	28.79
336.746	29.15
336.957	29.21
337.167	29.61
337.378	30.03
337.589	30.06
337.799	30.25
338.01	30.35
338.22	31.02
338.431	31.62
338.642	31.54
338.852	31.8
339.063	31.88
339.273	31.86
339.484	31.77
339.694	31.73
339.905	31.88
340.115	32.28
340.326	32.48
340.536	32.35
340.746	32.5
340.957	33.03
341.167	33.07
341.378	33.33
341.588	33.16
341.799	33.08
342.009	33.16
342.219	33.28
342.43	33.07
342.64	33.08
342.85	32.91
343.061	32.85
343.271	32.29
343.481	32.49
343.691	32.42
343.902	32.7
344.112	33.17
344.322	33.24
344.532	33.3
344.743	33.72
344.953	34.22
345.163	34.41
345.373	34.42
345.583	34.69
345.793	34.56
346.004	34.83
346.214	34.98
346.424	34.48
346.634	34.36
346.844	34.66
347.054	34.53
347.264	33.91
347.474	34.07
347.684	33.95
347.894	34.2
348.104	34.2
348.314	34.19
348.524	34.29
348.734	34.38
348.944	34.31
349.154	33.81
349.364	33.56
349.574	33.83
349.784	33.56
349.994	33.74
350.204	33.38
350.413	33.05
350.623	32.93
350.833	32.56
351.043	32.6
351.253	32.79
351.463	33.18
351.672	33.31
351.882	33.1
352.092	33.53
352.302	32.96
352.511	33.18
352.721	33.73
352.931	33.57
353.141	33.76
353.35	33.64
353.56	33.25
353.77	32.97
353.979	32.91
354.189	33.15
354.399	33.26
354.608	33.47
354.818	33.25
355.027	33.04
355.237	32.95
355.447	33.13
355.656	33.37
355.866	33.41
356.075	33.64
356.285	33.35
356.494	33.02
356.704	32.76
356.913	33.13
357.123	32.94
357.332	32.87
357.542	32.88
357.751	32.73
357.96	32.57
358.17	32.57
358.379	32.54
358.589	32.79
358.798	32.78
359.007	32.73
359.217	32.57
359.426	32.83
359.635	32.87
359.845	33.09
360.054	32.96
360.263	33.14
360.472	33.48
360.682	33.25
360.891	33.29
361.1	33.5
361.309	33.52
361.519	33.45
361.728	33.56
361.937	33.4
362.146	33.23
362.355	33.23
362.564	32.98
362.774	32.79
362.983	32.76
363.192	32.75
363.401	32.65
363.61	32.43
363.819	32.5
364.028	32.21
364.237	32.41
364.446	32.4
364.655	32.47
364.864	32.52
365.073	32.57
365.282	32.82
365.491	32.78
365.7	32.89
365.909	33.2
366.118	33.2
366.327	33.29
366.536	32.87
366.745	32.9
366.954	32.74
367.162	33.06
367.371	33.03
367.58	32.69
367.789	32.51
367.998	32.13
368.207	31.9
368.415	31.58
368.624	31.7
368.833	31.99
369.042	32.07
369.25	32.09
369.459	32.06
369.668	31.83
369.877	32.03
370.085	31.82
370.294	32.41
370.503	32.19
370.711	32.4
370.92	32.21
371.129	32.27
371.337	32.02
371.546	32.15
371.754	32.18
371.963	32.34
372.171	32.31
372.38	32.46
372.589	32.07
372.797	32.33
373.006	32.55
373.214	32.66
373.423	32.6
373.631	32.47
373.84	32.29
374.048	31.98
374.256	31.83
374.465	31.93
374.673	32.04
374.882	31.98
375.09	31.63
375.298	31.06
375.507	31.01
375.715	30.96
375.923	31.04
376.132	30.94
376.34	30.9
376.548	30.93
376.757	30.83
376.965	30.69
377.173	30.78
377.381	30.88
377.59	31.19
377.798	31.1
378.006	30.88
378.214	31.04
378.423	31.06
378.631	31.14
378.839	30.87
379.047	30.76
379.255	30.96
379.463	30.91
379.671	30.71
379.879	30.35
380.088	30.27
380.296	30.37
380.504	30.19
380.712	30.21
380.92	30.11
381.128	30.35
381.336	30.27
381.544	30.27
381.752	30.28
381.96	30.58
382.168	30.59
382.376	30.56
382.584	30.77
382.791	30.73
382.999	30.92
383.207	31
383.415	30.85
383.623	30.88
383.831	30.68
384.039	30.54
384.247	30.46
384.454	30.92
384.662	31.12
384.87	30.84
385.078	30.68
385.285	30.47
385.493	30.62
385.701	30.71
385.909	30.7
386.116	30.76
386.324	30.68
386.532	30.76
386.739	30.46
386.947	30.4
387.155	30.47
387.362	30.97
387.57	31.13
387.778	31.07
387.985	31.03
388.193	31.2
388.4	31.36
388.608	31.59
388.816	31.57
389.023	31.77
389.231	31.71
389.438	31.84
389.646	31.52
389.853	31.41
390.061	31.29
390.268	31.32
390.475	31.25
390.683	31.25
390.89	31.1
391.098	31.08
391.305	30.99
391.512	30.99
391.72	30.93
391.927	31.04
392.135	31
392.342	30.96
392.549	31.05
392.756	31.08
392.964	31.08
393.171	31.18
393.378	31.2
393.586	31.22
393.793	31.06
394	31.13
394.207	30.84
394.414	30.93
394.622	30.84
394.829	30.84
395.036	30.86
395.243	30.74
395.45	30.76
395.657	30.63
395.864	30.57
396.072	30.69
396.279	30.55
396.486	30.98
396.693	31.05
396.9	31.25
397.107	31.14
397.314	31.19
397.521	31.34
397.728	31.37
397.935	31.72
398.142	31.78
398.349	31.77
398.556	31.99
398.763	31.65
398.97	31.51
399.177	31.59
399.383	31.76
399.59	31.66
399.797	31.81
400.004	31.72
400.211	31.62
400.418	31.55
400.625	31.78
400.831	31.84
401.038	32.04
401.245	32.24
401.452	32.25
401.658	32.21
401.865	32.2
402.072	31.97
402.279	32.04
402.485	32.06
402.692	32.34
402.899	32.33
403.105	32.53
403.312	32.83
403.519	33.03
403.725	33.23
403.932	33.47
404.138	33.7
404.345	33.9
404.552	34.15
404.758	34.06
404.965	33.96
405.171	33.92
405.378	33.57
405.584	33.53
405.791	33.36
405.997	33.09
406.204	32.82
406.41	32.8
406.617	32.7
406.823	32.41
407.029	32.47
407.236	32.4
407.442	32.34
407.649	32.31
407.855	31.98
408.061	31.98
408.268	32.04
408.474	32.36
408.68	32.38
408.887	32.35
409.093	32.43
409.299	32.37
409.505	32.38
409.712	32.52
409.918	32.57
410.124	32.72
410.33	32.61
410.537	32.6
410.743	32.18
410.949	32
411.155	31.93
411.361	31.79
411.567	31.8
411.773	31.69
411.98	31.65
412.186	31.57
412.392	31.53
412.598	31.55
412.804	31.62
413.01	31.92
413.216	32.03
413.422	32.05
413.628	32.28
413.834	32.26
414.04	32.36
414.246	32.43
414.452	32.74
414.658	32.7
414.864	32.63
415.07	32.62
415.275	32.54
415.481	32.4
415.687	32.41
415.893	32.37
416.099	32.43
416.305	32.48
416.511	32.48
416.716	32.36
416.922	32.35
417.128	32.54
417.334	32.47
417.539	32.45
417.745	32.45
417.951	32.5
418.157	32.55
418.362	32.57
418.568	32.55
418.774	32.57
418.979	32.62
419.185	32.61
419.391	32.63
419.596	32.68
419.802	32.66
420.008	32.73
420.213	32.82
420.419	32.74
420.624	32.69
420.83	32.63
421.035	32.58
421.241	32.53
421.446	32.57
421.652	32.49
421.857	32.45
422.063	32.54
422.268	32.58
422.474	32.47
422.679	32.47
422.885	32.54
423.09	32.64
423.295	32.63
423.501	32.68
423.706	32.66
423.911	32.63
424.117	32.71
424.322	32.67
424.527	32.68
424.733	32.77
424.938	32.83
425.143	32.79
425.349	32.74
425.554	32.73
425.759	32.68
425.964	32.69
426.169	32.74
426.375	32.62
426.58	32.64
426.785	32.6
426.99	32.45
427.195	32.38
427.4	32.38
427.605	32.45
427.811	32.49
428.016	32.56
428.221	32.88
428.426	32.92
428.631	33.01
428.836	32.98
429.041	33
429.246	33.16
429.451	33.29
429.656	33.43
429.861	33.3
430.066	33.3
430.271	33.41
430.476	33.17
430.681	33.16
430.886	33.23
431.09	33.28
431.295	33.28
431.5	33.28
431.705	33.28
431.91	33.39
432.115	33.61
432.32	33.58
432.524	33.5
432.729	33.54
432.934	33.58
433.139	33.88
433.343	34.16
433.548	34.6
433.753	34.96
433.958	35.25
434.162	35.49
434.367	35.94
434.572	36.57
434.776	37.23
434.981	37.86
435.186	38.49
435.39	38.76
435.595	38.89
435.799	38.73
436.004	38.62
436.209	38.57
436.413	38.22
436.618	37.75
436.822	37.33
437.027	36.79
437.231	36.12
437.436	35.59
437.64	35.18
437.845	34.8
438.049	34.5
438.253	34.28
438.458	34.09
438.662	34.04
438.867	33.99
439.071	33.81
439.275	33.78
439.48	33.91
439.684	33.94
439.888	33.86
440.093	33.89
440.297	33.93
440.501	34.03
440.706	33.87
440.91	33.84
441.114	33.85
441.318	34
441.523	33.89
441.727	33.97
441.931	33.85
442.135	33.94
442.339	34.02
442.543	34.05
442.748	33.92
442.952	34.14
443.156	34.25
443.36	34.26
443.564	34.19
443.768	34.34
443.972	34.14
444.176	34.23
444.38	34.2
444.584	34.16
444.788	34.17
444.992	34.28
445.196	34.39
445.4	34.33
445.604	34.33
445.808	34.21
446.012	34.16
446.216	34.26
446.42	34.3
446.624	34.26
446.828	34.17
447.032	34.23
447.235	34.2
447.439	34.08
447.643	34.03
447.847	33.96
448.051	34.06
448.254	34.08
448.458	34.01
448.662	34.01
448.866	34.06
449.069	34.04
449.273	33.9
449.477	33.98
449.681	34.03
449.884	34.18
450.088	34.27
450.292	34.43
450.495	34.52
450.699	34.62
450.902	34.66
451.106	34.61
451.31	34.82
451.513	34.89
451.717	34.82
451.92	34.77
452.124	34.71
452.327	34.76
452.531	34.61
452.734	34.49
452.938	34.48
453.141	34.38
453.345	34.29
453.548	34.25
453.752	34.24
453.955	34.13
454.158	34.17
454.362	34.11
454.565	34.03
454.769	34.11
454.972	34.24
455.175	34.24
455.379	34.26
455.582	34.39
455.785	34.33
455.988	34.42
456.192	34.59
456.395	34.49
456.598	34.54
456.801	34.5
457.005	34.45
457.208	34.25
457.411	34.27
457.614	34.28
457.817	34.3
458.021	34.37
458.224	34.29
458.427	34.21
458.63	34.28
458.833	34.24
459.036	34.43
459.239	34.44
459.442	34.44
459.645	34.39
459.848	34.39
460.051	34.36
460.254	34.3
460.457	34.22
460.66	34.23
460.863	34.2
461.066	34.28
461.269	34.18
461.472	34.1
461.675	34.27
461.878	34.25
462.081	34.14
462.284	34.21
462.486	34.2
462.689	34.29
462.892	34.29
463.095	34.33
463.298	34.38
463.5	34.29
463.703	34.4
463.906	34.24
464.109	34.26
464.311	34.29
464.514	34.22
464.717	34.37
464.92	34.53
465.122	34.59
465.325	34.67
465.528	34.66
465.73	34.59
465.933	34.53
466.135	34.65
466.338	34.71
466.541	34.84
466.743	34.95
466.946	34.9
467.148	34.62
467.351	34.51
467.553	34.48
467.756	34.42
467.958	34.52
468.161	34.54
468.363	34.42
468.566	34.5
468.768	34.48
468.971	34.44
469.173	34.49
469.375	34.78
469.578	34.9
469.78	34.9
469.983	34.88
470.185	34.95
470.387	34.91
470.59	34.87
470.792	34.81
470.994	34.79
471.196	34.85
471.399	34.86
471.601	34.86
471.803	34.85
472.005	34.86
472.208	34.88
472.41	34.9
472.612	35.01
472.814	35.12
473.016	35.2
473.218	35.23
473.421	35.23
473.623	35.19
473.825	35.1
474.027	35.07
474.229	35.09
474.431	35.15
474.633	35.11
474.835	35.13
475.037	35.15
475.239	35.05
475.441	35.1
475.643	34.91
475.845	35.04
476.047	35.16
476.249	35.26
476.451	35.27
476.653	35.26
476.855	35.26
477.057	35.16
477.258	35.16
477.46	35.23
477.662	35.26
477.864	35.32
478.066	35.26
478.268	35.26
478.469	35.09
478.671	35.11
478.873	35.08
479.075	35.11
479.276	35.2
479.478	35.12
479.68	35.11
479.882	35.12
480.083	35.22
480.285	35.24
480.487	35.28
480.688	35.44
480.89	35.41
481.091	35.47
481.293	35.5
481.495	35.46
481.696	35.49
481.898	35.44
482.099	35.37
482.301	35.29
482.502	35.21
482.704	35.17
482.905	35.05
483.107	35.04
483.308	35.03
483.51	35
483.711	35.03
483.913	35.08
484.114	35.07
484.315	35.07
484.517	35.14
484.718	35.15
484.92	35.16
485.121	35.25
485.322	35.24
485.524	35.24
485.725	35.31
485.926	35.31
486.127	35.31
486.329	35.38
486.53	35.42
486.731	35.5
486.932	35.6
487.134	35.67
487.335	35.72
487.536	35.76
487.737	35.86
487.938	35.84
488.139	35.93
488.341	35.98
488.542	35.97
488.743	36.01
488.944	35.96
489.145	35.92
489.346	35.9
489.547	35.95
489.748	35.99
489.949	36.02
490.15	36
490.351	35.95
490.552	35.95
490.753	35.97
490.954	35.97
491.155	35.96
491.356	35.91
491.557	35.93
491.758	35.85
491.959	35.85
492.159	35.78
492.36	35.76
492.561	35.78
492.762	35.79
492.963	35.82
493.164	35.81
493.364	35.78
493.565	35.9
493.766	35.97
493.967	35.98
494.167	35.99
494.368	36.06
494.569	36.2
494.769	36.19
494.97	36.15
495.171	36.21
495.371	36.28
495.572	36.31
495.773	36.28
495.973	36.29
496.174	36.43
496.375	36.45
496.575	36.4
496.776	36.38
496.976	36.43
497.177	36.48
497.377	36.47
497.578	36.51
497.778	36.52
497.979	36.48
498.179	36.36
498.38	36.19
498.58	36.19
498.78	36.21
498.981	36.27
499.181	36.27
499.382	36.22
499.582	36.13
499.782	36.08
499.983	36.2
500.183	36.21
500.383	36.25
500.584	36.4
500.784	36.47
500.984	36.38
501.184	36.37
501.385	36.43
501.585	36.54
501.785	36.73
501.985	36.72
502.185	36.66
502.386	36.71
502.586	36.75
502.786	36.79
502.986	36.71
503.186	36.89
503.386	36.81
503.586	36.69
503.786	36.74
503.987	36.62
504.187	36.58
504.387	36.67
504.587	36.64
504.787	36.68
504.987	36.68
505.187	36.8
505.387	36.8
505.587	36.83
505.786	36.89
505.986	36.83
506.186	36.79
506.386	36.8
506.586	36.81
506.786	36.91
506.986	36.93
507.186	36.94
507.386	36.82
507.585	36.74
507.785	36.86
507.985	36.92
508.185	36.99
508.384	37.1
508.584	37.21
508.784	37.22
508.984	37.2
509.183	37.21
509.383	37.19
509.583	37.24
509.782	37.37
509.982	37.26
510.182	37.27
510.381	37.26
510.581	37.3
510.781	37.22
510.98	37.22
511.18	37.15
511.379	37.11
511.579	37.16
511.778	37.1
511.978	37.06
512.177	37.29
512.377	37.3
512.576	37.3
512.776	37.22
512.975	37.34
513.175	37.34
513.374	37.4
513.573	37.51
513.773	37.56
513.972	37.63
514.172	37.67
514.371	37.55
514.57	37.5
514.77	37.5
514.969	37.75
515.168	37.72
515.367	37.88
515.567	37.96
515.766	37.93
515.965	38.01
516.164	38.04
516.364	38.13
516.563	38.13
516.762	38.16
516.961	38.17
517.16	38.14
517.359	38.16
517.559	38.01
517.758	38.02
517.957	38.15
518.156	38.11
518.355	38.15
518.554	38.05
518.753	38.11
518.952	38.17
519.151	38.21
519.35	38.09
519.549	38.09
519.748	38.28
519.947	38.35
520.146	38.35
520.345	38.35
520.544	38.41
520.743	38.51
520.942	38.48
521.141	38.45
521.339	38.51
521.538	38.64
521.737	38.75
521.936	38.69
522.135	38.66
522.333	38.55
522.532	38.62
522.731	38.59
522.93	38.64
523.129	38.69
523.327	38.76
523.526	38.77
523.725	38.82
523.923	38.76
524.122	38.77
524.321	38.8
524.519	38.9
524.718	38.98
524.917	39.01
525.115	38.97
525.314	39.07
525.512	39
525.711	38.95
525.909	38.91
526.108	38.9
526.306	38.92
526.505	38.99
526.703	39.03
526.902	39.03
527.1	39.03
527.299	39.05
527.497	38.98
527.696	38.99
527.894	38.98
528.092	39.01
528.291	38.97
528.489	38.95
528.688	38.89
528.886	38.84
529.084	38.81
529.283	38.82
529.481	38.82
529.679	38.83
529.877	38.87
530.076	38.96
530.274	39
530.472	39.14
530.67	39.23
530.869	39.26
531.067	39.37
531.265	39.48
531.463	39.52
531.661	39.63
531.859	39.72
532.057	39.8
532.255	39.78
532.454	39.75
532.652	39.79
532.85	39.81
533.048	39.84
533.246	39.85
533.444	39.85
533.642	39.88
533.84	39.9
534.038	39.96
534.236	39.99
534.434	40.09
534.632	40.14
534.83	40.13
535.027	40.22
535.225	40.39
535.423	40.47
535.621	40.49
535.819	40.64
536.017	40.69
536.215	40.82
536.412	40.94
536.61	41.02
536.808	41.27
537.006	41.44
537.203	41.5
537.401	41.61
537.599	41.83
537.797	42.16
537.994	42.36
538.192	42.71
538.39	43.09
538.587	43.5
538.785	43.93
538.983	44.27
539.18	44.75
539.378	45.33
539.575	45.85
539.773	46.18
539.97	46.54
540.168	46.96
540.366	47.19
540.563	47.35
540.761	47.58
540.958	47.77
541.155	47.97
541.353	48.18
541.55	48.28
541.748	48.43
541.945	48.6
542.143	48.73
542.34	48.88
542.537	49.11
542.735	49.29
542.932	49.46
543.129	49.87
543.327	50.47
543.524	51.13
543.721	52.05
543.919	53.08
544.116	54.22
544.313	55.39
544.51	56.59
544.708	57.86
544.905	59.22
545.102	60.47
545.299	61.44
545.496	61.99
545.693	62.3
545.891	62.2
546.088	61.75
546.285	61.32
546.482	60.53
546.679	59.72
546.876	58.82
547.073	57.89
547.27	56.88
547.467	55.88
547.664	55.09
547.861	54.29
548.058	53.67
548.255	53.16
548.452	52.58
548.649	52.4
548.846	52.01
549.043	51.64
549.24	51.22
549.437	50.98
549.633	50.61
549.83	50.12
550.027	49.81
550.224	49.55
550.421	49.21
550.618	48.75
550.814	48.43
551.011	47.93
551.208	47.64
551.405	47.28
551.601	46.86
551.798	46.38
551.995	45.96
552.191	45.69
552.388	45.35
552.585	45.09
552.781	44.86
552.978	44.53
553.175	44.35
553.371	44.07
553.568	44.01
553.764	43.83
553.961	43.9
554.157	43.82
554.354	43.59
554.55	43.33
554.747	43.18
554.943	43.09
555.14	42.99
555.336	43.04
555.533	43.06
555.729	42.85
555.926	42.79
556.122	42.82
556.318	42.85
556.515	42.69
556.711	42.73
556.907	42.66
557.104	42.69
557.3	42.61
557.496	42.61
557.693	42.45
557.889	42.39
558.085	42.54
558.281	42.31
558.478	42.21
558.674	42.35
558.87	42.4
559.066	42.49
559.262	42.37
559.459	42.49
559.655	42.3
559.851	42.27
560.047	42.37
560.243	42.15
560.439	42.17
560.635	42.14
560.831	42.05
561.027	41.92
561.223	42.08
561.419	42.16
561.615	41.97
561.811	42.04
562.007	42.05
562.203	42.01
562.399	42.01
562.595	42.11
562.791	42.07
562.987	42.22
563.183	42.12
563.379	41.95
563.575	41.8
563.771	41.9
563.966	42.03
564.162	42.13
564.358	42.12
564.554	42.08
564.75	42.1
564.945	42.15
565.141	41.98
565.337	42.11
565.533	42.02
565.728	42.05
565.924	42.02
566.12	41.85
566.315	41.83
566.511	41.7
566.707	41.88
566.902	41.82
567.098	41.69
567.293	41.86
567.489	41.94
567.684	41.88
567.88	42.03
568.076	42.04
568.271	41.96
568.467	42.1
568.662	42.25
568.858	42.03
569.053	42.07
569.248	42.23
569.444	42.13
569.639	42.06
569.835	42.28
570.03	42.17
570.225	42.14
570.421	42.23
570.616	42.08
570.812	42.02
571.007	42.14
571.202	42.15
571.397	42.17
571.593	41.97
571.788	41.81
571.983	41.67
572.178	41.62
572.374	41.67
572.569	41.7
572.764	41.69
572.959	41.79
573.154	41.65
573.35	41.56
573.545	41.57
573.74	41.77
573.935	41.95
574.13	42.02
574.325	42.23
574.52	42.49
574.715	42.73
574.91	43
575.105	43.27
575.3	43.66
575.495	44.01
575.69	44.37
575.885	44.79
576.08	45.25
576.275	45.73
576.47	46.16
576.665	46.42
576.86	46.67
577.055	46.95
577.25	47.21
577.444	47.58
577.639	47.99
577.834	48.27
578.029	48.53
578.224	48.71
578.418	48.89
578.613	49.07
578.808	49.06
579.003	49.19
579.197	49.19
579.392	49.18
579.587	49.18
579.781	48.87
579.976	48.84
580.171	48.56
580.365	48.45
580.56	48.36
580.755	48.23
580.949	48.41
581.144	48.42
581.338	48.49
581.533	48.57
581.727	48.68
581.922	48.98
582.116	48.91
582.311	49.17
582.505	49.37
582.7	49.42
582.894	49.54
583.089	49.53
583.283	49.6
583.478	49.65
583.672	49.61
583.866	49.42
584.061	49.16
584.255	49.35
584.449	49.51
584.644	49.6
584.838	49.75
585.032	49.84
585.226	50.22
585.421	50.54
585.615	50.85
585.809	51.18
586.003	51.59
586.198	52.17
586.392	52.35
586.586	52.35
586.78	52.31
586.974	52.24
587.168	52.18
587.363	51.88
587.557	51.59
587.751	51.14
587.945	50.76
588.139	50.35
588.333	49.74
588.527	49.38
588.721	49.05
588.915	48.78
589.109	48.59
589.303	48.34
589.497	47.92
589.691	47.78
589.885	47.91
590.079	47.96
590.273	48.04
590.466	48.27
590.66	48.43
590.854	48.72
591.048	48.98
591.242	49.21
591.436	49.49
591.629	50.1
591.823	50.18
592.017	50.59
592.211	50.88
592.404	51.05
592.598	51.14
592.792	51.09
592.986	51.02
593.179	50.94
593.373	50.74
593.567	50.39
593.76	49.92
593.954	49.78
594.147	49.26
594.341	48.82
594.535	48.56
594.728	48.25
594.922	47.81
595.115	47.45
595.309	47.03
595.502	46.87
595.696	46.82
595.889	46.84
596.083	46.68
596.276	46.64
596.47	46.59
596.663	46.43
596.856	46.38
597.05	46.55
597.243	46.77
597.437	46.96
597.63	47.17
597.823	47.41
598.017	47.62
598.21	48.18
598.403	48.38
598.596	48.42
598.79	48.7
598.983	49.07
599.176	49.33
599.369	49.36
599.563	49.62
599.756	49.61
599.949	49.47
600.142	49.21
600.335	48.69
600.528	48.48
600.722	48.33
600.915	48.3
601.108	47.82
601.301	47.45
601.494	47.32
601.687	46.83
601.88	46.55
602.073	46.32
602.266	46.2
602.459	46.08
602.652	45.96
602.845	46.07
603.038	45.86
603.231	45.94
603.424	45.83
603.617	45.75
603.809	45.87
604.002	45.83
604.195	45.72
604.388	45.74
604.581	45.81
604.774	45.84
604.966	45.88
605.159	45.91
605.352	45.82
605.545	46.12
605.737	46.24
605.93	46.34
606.123	46.72
606.316	47.31
606.508	47.85
606.701	48.27
606.894	48.85
607.086	49.16
607.279	49.81
607.471	50.75
607.664	51.49
607.857	52.44
608.049	53.8
608.242	55.26
608.434	57.43
608.627	60
608.819	63.21
609.012	66.77
609.204	71.05
609.397	75.35
609.589	79.91
609.782	84.9
609.974	90.15
610.166	95.37
610.359	100.53
610.551	105.07
610.743	109.08
610.936	112.27
611.128	114.88
611.32	116.31
611.513	117.16
611.705	117.25
611.897	116.61
612.09	115.06
612.282	112.95
612.474	110.44
612.666	107.61
612.858	104.65
613.051	102.2
613.243	99.33
613.435	96.94
613.627	94.61
613.819	92.43
614.011	89.99
614.203	87.94
614.395	85.56
614.588	83.02
614.78	80.7
614.972	78.57
615.164	76.13
615.356	73.83
615.548	71.71
615.74	69.88
615.932	68.09
616.124	66.32
616.315	64.42
616.507	63.21
616.699	61.97
616.891	60.94
617.083	59.5
617.275	58.43
617.467	57.62
617.659	57.09
617.85	56.1
618.042	55.31
618.234	54.73
618.426	54.22
618.618	53.59
618.809	53.34
619.001	53.21
619.193	53.3
619.384	53.47
619.576	53.46
619.768	53.31
619.959	53.52
620.151	53.49
620.343	53.66
620.534	53.92
620.726	53.99
620.917	53.86
621.109	53.79
621.301	53.81
621.492	53.84
621.684	53.81
621.875	53.67
622.067	53.6
622.258	53.82
622.45	53.87
622.641	53.98
622.832	54.23
623.024	54.66
623.215	54.81
623.407	54.84
623.598	55.03
623.789	55.27
623.981	55.51
624.172	55.72
624.363	55.57
624.555	55.56
624.746	55.46
624.937	55.37
625.129	55.42
625.32	55.24
625.511	55.17
625.702	55
625.893	54.66
626.085	54.46
626.276	54.21
626.467	54.12
626.658	54.06
626.849	53.83
627.04	53.73
627.231	53.45
627.422	53.37
627.614	53.48
627.805	53.36
627.996	53.61
628.187	53.82
628.378	54.01
628.569	54.46
628.76	54.84
628.951	55.51
629.142	56.12
629.332	56.99
629.523	57.77
629.714	58.5
629.905	59.06
630.096	59.71
630.287	60.07
630.478	60.39
630.669	60.47
630.859	60.21
631.05	60.11
631.241	59.56
631.432	58.62
631.623	57.69
631.813	56.71
632.004	55.87
632.195	54.61
632.385	53.7
632.576	53.06
632.767	52.13
632.957	51.66
633.148	50.74
633.339	50.11
633.529	49.62
633.72	49.18
633.91	48.79
634.101	48.61
634.292	48.5
634.482	48.39
634.673	47.87
634.863	47.67
635.054	47.28
635.244	47.12
635.435	47.27
635.625	47.35
635.815	47.56
636.006	47.41
636.196	47.32
636.387	47.25
636.577	47.15
636.767	47.12
636.958	47.01
637.148	47.23
637.338	47.42
637.529	47.27
637.719	46.93
637.909	46.85
638.099	46.7
638.29	46.43
638.48	46.46
638.67	46.55
638.86	46.72
639.05	46.79
639.241	46.68
639.431	46.51
639.621	46.53
639.811	46.78
640.001	46.57
640.191	47.13
640.381	47.32
640.571	47.26
640.761	47.1
640.951	47.11
641.141	46.98
641.331	46.93
641.521	47.07
641.711	47.22
641.901	47.18
642.091	47.48
642.281	47.19
642.471	47.4
642.661	47.45
642.851	47.57
643.041	47.66
643.231	48.08
643.42	47.88
643.61	47.87
643.8	47.72
643.99	47.89
644.18	47.76
644.369	47.52
644.559	47.36
644.749	47.36
644.939	47.47
645.128	47.45
645.318	47.23
645.508	47.56
645.697	47.53
645.887	47.62
646.076	47.43
646.266	47.53
646.456	47.81
646.645	47.82
646.835	48.13
647.024	47.92
647.214	47.91
647.403	48.03
647.593	48.11
647.782	48.38
647.972	48.53
648.161	48.75
648.351	48.75
648.54	48.77
648.73	49.02
648.919	49.14
649.108	49.63
649.298	49.84
649.487	50.37
649.677	50.67
649.866	50.75
650.055	50.58
650.244	50.68
650.434	50.85
650.623	50.83
650.812	50.96
651.002	50.85
651.191	50.74
651.38	50.67
651.569	50.22
651.758	49.98
651.947	49.89
652.137	50.14
652.326	50.04
652.515	49.99
652.704	50
652.893	49.86
653.082	49.52
653.271	49.52
653.46	49.14
653.649	48.97
653.838	48.87
654.027	48.67
654.216	48.62
654.405	48.72
654.594	48.33
654.783	48.34
654.972	48.23
655.161	48.24
655.35	48.1
655.539	48.5
655.728	48.63
655.916	48.4
656.105	48.39
656.294	48.33
656.483	48.04
656.672	48.17
656.86	48.23
657.049	47.86
657.238	48.01
657.427	47.96
657.615	47.94
657.804	47.99
657.993	48.04
658.181	48.22
658.37	48.02
658.559	48.2
658.747	48.36
658.936	48.14
659.125	48.31
659.313	48.27
659.502	48.26
659.69	48.32
659.879	48.05
660.067	48.32
660.256	48.11
660.444	48.16
660.633	48.11
660.821	48.25
661.01	48.53
661.198	48.89
661.387	49.03
661.575	49.01
661.763	48.86
661.952	49.52
662.14	49.47
662.328	49.51
662.517	49.68
662.705	49.81
662.893	49.29
663.082	49.34
663.27	49.23
663.458	49.25
663.646	49.55
663.834	49.72
664.023	49.36
664.211	49.35
664.399	49.44
664.587	49.21
664.775	48.91
664.963	49.14
665.152	49.14
665.34	49.08
665.528	48.8
665.716	48.55
665.904	48.09
666.092	47.75
666.28	47.45
666.468	47.5
666.656	47.51
666.844	47.75
667.032	47.67
667.22	47.33
667.408	47.34
667.596	47.5
667.784	47.62
667.971	47.82
668.159	47.98
668.347	48.09
668.535	48.35
668.723	48.58
668.911	48.4
669.098	48.48
669.286	48.66
669.474	48.69
669.662	48.79
669.849	48.58
670.037	48.51
670.225	48.53
670.413	48.55
670.6	48.29
670.788	48.33
670.976	48.64
671.163	48.76
671.351	48.72
671.538	48.58
671.726	48.79
671.913	49.09
672.101	49.56
672.289	49.71
672.476	49.65
672.664	49.94
672.851	49.66
673.039	49.33
673.226	49.26
673.413	49.21
673.601	49.17
673.788	48.96
673.976	48.64
674.163	48.32
674.35	48.64
674.538	48.61
674.725	48.24
674.912	48.47
675.1	48.66
675.287	48.58
675.474	48.78
675.662	48.92
675.849	48.87
676.036	48.6
676.223	48.6
676.411	48.27
676.598	48.3
676.785	48.44
676.972	48.34
677.159	48.44
677.346	48.32
677.533	48.3
677.721	48.11
677.908	48.07
678.095	48.22
678.282	48.02
678.469	48.19
678.656	48.41
678.843	48.08
679.03	48.01
679.217	47.68
679.404	47.78
679.591	47.67
679.778	47.75
679.964	47.83
680.151	48.11
680.338	48.46
680.525	48.08
680.712	48.05
680.899	48.31
681.086	48.28
681.272	48.43
681.459	48.52
681.646	48.46
681.833	48.4
682.02	48.8
682.206	48.83
682.393	48.75
682.58	49.24
682.766	49.18
682.953	49.24
683.14	49.1
683.326	49.38
683.513	49.44
683.7	49.74
683.886	50.06
684.073	49.69
684.259	49.28
684.446	49.5
684.632	48.97
684.819	49.02
685.005	49.01
685.192	49.75
685.378	49.78
685.565	49.81
685.751	49.8
685.938	49.73
686.124	49.68
686.31	50.05
686.497	50.38
686.683	50.73
686.87	50.88
687.056	51.01
687.242	50.82
687.429	50.59
687.615	50.39
687.801	50.27
687.987	50.31
688.174	50.32
688.36	50.12
688.546	49.59
688.732	49.56
688.918	49.17
689.105	48.9
689.291	48.65
689.477	48.68
689.663	48.91
689.849	48.84
690.035	48.65
690.221	48.52
690.407	48.74
690.593	49.05
690.779	48.84
690.965	49.07
691.151	49.06
691.337	49.24
691.523	49.21
691.709	49.15
691.895	49.34
692.081	49.75
692.267	49.84
692.453	50.11
692.639	49.83
692.825	50.26
693.011	50.52
693.196	51.17
693.382	51.57
693.568	51.81
693.754	51.8
693.94	51.8
694.125	51.4
694.311	51.36
694.497	50.94
694.682	50.98
694.868	50.58
695.054	50.41
695.239	49.97
695.425	49.15
695.611	49.03
695.796	48.82
695.982	48.42
696.168	48.41
696.353	48.54
696.539	48.51
696.724	48.47
696.91	48.55
697.095	48.16
697.281	48.2
697.466	48.58
697.652	48.46
697.837	48.65
698.023	48.59
698.208	48.59
698.393	48.43
698.579	48.56
698.764	48.52
698.949	48.56
699.135	48.89
699.32	48.7
699.505	48.57
699.691	48.46
699.876	48.52
700.061	49
700.246	48.65
700.432	48.61
700.617	48.24
700.802	48.36
700.987	48.38
701.172	48.46
701.358	48.45
701.543	48.43
701.728	48.59
701.913	48.56
702.098	48.24
702.283	48.94
702.468	49.28
702.653	49.87
702.838	49.66
703.023	50.07
703.208	49.86
703.393	50.47
703.578	51.05
703.763	51.55
703.948	52.41
704.133	53.43
704.318	53.61
704.503	54.31
704.688	55.18
704.873	56.33
705.057	56.59
705.242	58.09
705.427	58.66
705.612	59.21
705.797	59.92
705.981	59.6
706.166	60.03
706.351	60.87
706.536	61.43
706.72	61.97
706.905	62.25
707.09	63.44
707.274	63.29
707.459	63.74
707.644	63.93
707.828	64
708.013	64.42
708.197	64.15
708.382	64.02
708.567	63.71
708.751	62.87
708.936	62.28
709.12	61.06
709.305	60.13
709.489	59.34
709.673	58.76
709.858	58.45
710.042	58.13
710.227	57.82
710.411	57.41
710.596	57.31
710.78	57.44
710.964	57.79
711.149	57.7
711.333	58.27
711.517	58.33
711.702	58.22
711.886	58.33
712.07	58.27
712.254	57.97
712.438	57.91
712.623	57.37
712.807	56.35
712.991	56.08
713.175	56.13
713.359	55.12
713.544	54.24
713.728	54.32
713.912	53.45
714.096	52.65
714.28	52.19
714.464	51.6
714.648	51.04
714.832	51.22
715.016	50.71
715.2	50.33
715.384	50.43
715.568	50.62
715.752	50.24
715.936	49.86
716.12	50.19
716.304	50.04
716.488	50.09
716.671	50.11
716.855	49.96
717.039	49.7
717.223	49.24
717.407	49.06
717.59	48.59
717.774	48.46
717.958	48.71
718.142	48.27
718.325	47.67
718.509	47.43
718.693	47.66
718.877	47.71
719.06	47.69
719.244	47.52
719.428	47.53
719.611	48.17
719.795	47.7
719.978	47.83
720.162	47.61
720.345	47.93
720.529	48.11
720.713	48.11
720.896	48.34
721.08	47.37
721.263	48.02
721.446	48.26
721.63	48.19
721.813	48.33
721.997	48.21
722.18	49.02
722.364	49.94
722.547	49.95
722.73	49.58
722.914	49.77
723.097	50.57
723.28	49.59
723.464	49.25
723.647	49.13
723.83	49.18
724.013	48.75
724.197	48.56
724.38	48.24
724.563	48.05
724.746	48.42
724.929	48.18
725.112	47.69
725.296	48.05
725.479	48.15
725.662	47.72
725.845	47.55
726.028	48
726.211	47.52
726.394	47.19
726.577	47.3
726.76	47.49
726.943	47.35
727.126	47.3
727.309	47.74
727.492	47.48
727.675	48.02
727.858	47.92
728.041	47.72
728.224	47.95
728.407	48.21
728.589	48.47
728.772	47.81
728.955	47.39
729.138	47.62
729.321	47.64
729.503	47.79
729.686	47.6
729.869	47.53
730.052	47.63
730.234	47.49
730.417	47.28
730.6	46.33
730.782	47.08
730.965	47.78
731.148	48.11
731.33	48.33
731.513	48.6
731.695	49.01
731.878	49.32
732.061	49.55
732.243	49.73
732.426	49.95
732.608	50.56
732.791	50.25
732.973	50.22
733.156	49.72
733.338	49.34
733.52	49.29
733.703	49.13
733.885	49.09
734.068	48.66
734.25	48.83
734.432	48.55
734.615	49.18
734.797	49.28
734.979	48.91
735.162	50.08
735.344	50.23
735.526	49.93
735.708	49.93
735.891	50.17
736.073	50.34
736.255	50.06
736.437	49.93
736.619	49.68
736.802	49.72
736.984	49.88
737.166	49.04
737.348	49.01
737.53	49.39
737.712	48.69
737.894	48.79
738.076	48.92
738.258	48.78
738.44	48.95
738.622	48.89
738.804	49.56
738.986	49.17
739.168	48.95
739.35	48.73
739.532	49.4
739.714	50.28
739.896	49.58
740.078	49.45
740.259	50.05
740.441	49.34
740.623	49.16
740.805	48.02
740.987	48.7
741.168	48.99
741.35	48.91
741.532	48.41
741.714	48.32
741.895	48.4
742.077	48.81
742.259	48.45
742.44	49.82
742.622	49.09
742.804	48.96
742.985	48.84
743.167	48.95
743.348	49.19
743.53	48.83
743.711	48.22
743.893	48.69
744.075	48.64
744.256	48.44
744.438	47.63
744.619	48.35
744.8	48.62
744.982	48.77
745.163	48.46
745.345	48.72
745.526	49.16
745.707	50.45
745.889	50.91
746.07	50.62
746.252	50.38
746.433	50.43
746.614	51.16
746.795	51.42
746.977	51.09
747.158	51.66
747.339	51.68
747.52	52.28
747.702	50.91
747.883	50.48
748.064	50.82
748.245	50.88
748.426	50.6
748.607	49.54
748.788	49.29
748.97	49.2
749.151	49.54
749.332	50.22
749.513	49.13
749.694	49.01
749.875	48.8
750.056	48
750.237	48.93
750.418	49.22
750.599	49.62
750.78	49.8
750.96	49.6
751.141	49.94
751.322	49.01
751.503	49.3
751.684	50.45
751.865	50.4
752.046	50.91
752.226	50.04
752.407	50.93
752.588	49.98
752.769	49.66
752.949	50.36
753.13	49.68
753.311	49.99
753.492	49.34
753.672	48.54
753.853	48.34
754.034	48.19
754.214	48.54
754.395	48.32
754.575	49.32
754.756	49.13
754.937	49.14
755.117	48.81
755.298	48.31
755.478	47.78
755.659	47.82
755.839	48.08
756.02	48.29
756.2	48.26
756.381	47.66
756.561	47.45
756.741	48.28
756.922	47.76
757.102	47.31
757.283	47.05
757.463	47.37
757.643	47.75
757.823	47.98
758.004	48.09
758.184	48
758.364	48.03
758.545	47.79
758.725	46.97
758.905	47.31
759.085	47.3
759.265	47.01
759.446	47.2
759.626	47.04
759.806	46.65
759.986	45.8
760.166	45.87
760.346	44.87
760.526	45.03
760.706	45.54
760.886	45.17
761.066	45.33
761.246	46.17
761.426	46.23
761.606	45.79
761.786	46.09
761.966	46.46
762.146	46.08
762.326	47.12
762.506	47.26
762.686	47.27
762.866	47.39
763.046	47.45
763.225	47.48
763.405	47.75
763.585	47.82
763.765	47.61
763.945	47.45
764.124	47.71
764.304	47.08
764.484	47.07
764.664	46.49
764.843	46.17
765.023	46.46
765.203	46.17
765.382	45.64
765.562	45.76
765.741	45.79
765.921	46.17
766.101	46.33
766.28	47.37
766.46	47.65
766.639	47.58
766.819	47.76
766.998	47.44
767.178	47.7
767.357	48.07
767.537	48.41
767.716	48.21
767.896	47.91
768.075	47.82
768.254	47.79
768.434	47.72
768.613	48.8
768.792	50.14
768.972	51.05
769.151	51.68
769.33	51.97
769.51	51.44
769.689	52.44
769.868	52.62
770.047	52.93
770.226	52.26
770.406	52.52
770.585	52.2
770.764	50.78
770.943	50.64
771.122	50.45
771.301	50.47
771.48	51
771.66	50.5
771.839	51.11
772.018	50.95
772.197	50.94
772.376	50.35
772.555	49.89
772.734	49.21
772.913	49.58
773.092	49.52
773.271	49.04
773.449	48.65
773.628	48.36
773.807	48.08
773.986	47.27
774.165	47.22
774.344	46.93
774.523	47.59
774.701	49.32
774.88	48.69
775.059	48.83
775.238	49.7
775.417	49.52
775.595	50.15
775.774	49.54
775.953	50.39
776.131	50.23
776.31	50.44
776.489	50.05
776.667	49.51
776.846	48.45
777.025	47.59
777.203	46.52
777.382	47
777.56	47.14
777.739	48.66
777.917	48.35
778.096	48.89
778.274	48.53
778.453	48.29
778.631	48.46
778.81	49.02
778.988	48.89
779.166	49.97
779.345	49.52
779.523	49.98
779.702	48.64
779.88	48.19
780.058	48.28
780.237	49.46
780.415	50.2
780.593	50.13
780.771	50.87
780.95	50.54
781.128	49.3
781.306	49.81
781.484	49.04
781.662	48.62
781.841	49.1
782.019	49.37
782.197	48.52
782.375	49.36
782.553	49.81
782.731	49.17
782.909	50.32
783.087	51.57
783.265	50.85
783.443	50.36
783.621	51.09
783.799	51.19
783.977	51.25
784.155	51.52
784.333	50.14
784.511	49.7
784.689	48.83
784.867	48
785.045	47.08
785.223	47.43
785.4	48.39
785.578	48.35
785.756	47.71
785.934	47.21
786.112	47.37
786.289	47.58
786.467	47.39
786.645	48.09
786.823	47.53
787	46.25
787.178	46.41
787.356	46.06
787.533	46.94
787.711	47.77
787.889	47.17
788.066	47.1
788.244	46.48
788.421	46.29
788.599	45.87
788.776	47.1
788.954	47.55
789.131	47.15
789.309	46.35
789.486	45.34
789.664	44.79
789.841	45.29
790.019	44.42
790.196	44.19
790.373	43.96
790.551	44.16
790.728	42.79
790.906	42.5
791.083	41.48
791.26	42.11
791.437	42.13
791.615	42.24
791.792	41.71
791.969	42.2
792.146	42.21
792.324	41.56
792.501	41.18
792.678	41.02
792.855	41.39
793.032	43.45
793.209	43.34
793.387	43.62
793.564	42.96
793.741	44.01
793.918	43.47
794.095	45.28
794.272	45.85
794.449	46.54
794.626	46.2
794.803	47.64
794.98	46.91
795.157	47.76
795.334	47.63
795.511	47.6
795.688	46.3
795.864	47.45
796.041	46.66
796.218	46.9
796.395	47.37
796.572	49.33
796.749	48.62
796.925	48.85
797.102	49.28
797.279	48.42
797.456	49.71
797.632	50.57
797.809	49.94
797.986	49.54
798.162	50.09
798.339	50.26
798.516	49.57
798.692	49.98
798.869	49.99
799.046	48.09
799.222	49.38
799.399	47.67
799.575	46.52
799.752	47.45
799.928	48
800.105	45.44
800.281	44.32
800.458	43.86
800.634	43.4
800.811	43.76
800.987	44.59
801.163	43.31
801.34	42.96
801.516	43.32
801.692	42.13
801.869	41.04
802.045	42.45
802.221	43.22
802.398	43.24
802.574	44.48
802.75	43.22
802.926	42.96
803.103	44.09
803.279	45.75
803.455	45.87
803.631	46.56
803.807	47.18
803.983	47.62
804.16	49.62
804.336	50.05
804.512	48.7
804.688	49.75
804.864	48.44
805.04	49.39
805.216	49.7
805.392	50.29
805.568	49.4
805.744	49.78
805.92	48.56
806.096	45.02
806.272	45.7
806.448	45.71
806.623	44.63
806.799	46.26
806.975	44.73
807.151	43.36
807.327	41.94
807.503	41.06
807.678	40.46
807.854	41.52
808.03	42.53
808.206	41.77
808.381	41.84
808.557	42.51
808.733	43.03
808.908	43.04
809.084	44.24
809.26	45.04
809.435	46.72
809.611	47.82
809.787	47.85
809.962	46.36
810.138	45.62
810.313	45.15
810.489	45.3
810.664	45.2
810.84	45
811.015	45.32
811.191	46.52
811.366	46.28
811.542	46.2
811.717	47.06
811.892	48.9
812.068	49.52
812.243	48.82
812.419	50.39
812.594	49.54
812.769	49.63
812.944	48.27
813.12	46.2
813.295	46.28
813.47	44.42
813.645	43.43
813.821	41.77
813.996	42.52
814.171	44.1
814.346	41.41
814.521	42.14
814.697	42.61
814.872	43.09
815.047	45.45
815.222	46.5
815.397	46.72
815.572	46.7
815.747	45.6
815.922	46.69
816.097	46.67
816.272	47.06
816.447	46.24
816.622	45.6
816.797	45.3
816.972	44.01
817.147	43.12
817.322	44.88
817.496	44.6
817.671	45.79
817.846	43.56
818.021	42.54
818.196	43.37
818.371	43.27
818.545	44.2
818.72	44.1
818.895	43.97
819.069	44.21
819.244	42.21
819.419	42.13
819.594	43.14
819.768	43.71
819.943	44.1
820.117	44.14
820.292	45.48
820.467	44.82
820.641	43.97
820.816	43.97
820.99	43.76
821.165	44
821.339	44.29
821.514	43.96
821.688	43.98
821.863	43.93
822.037	43.67
822.212	43.29
822.386	43.27
822.56	43.5
822.735	43.39
822.909	43.28
823.084	43.34
823.258	43.29
823.432	43.41
823.606	43.21
823.781	43.2
823.955	43.13
824.129	42.63
824.303	42.46
824.478	42.49
824.652	42.43
824.826	42.25
825	41.78
825.174	41.62
825.348	41.04
825.523	41.13
825.697	40.98
825.871	41.12
826.045	41.99
826.219	41.62
826.393	41.78
826.567	41.67
826.741	41.81
826.915	42.23
827.089	42.59
827.263	43.17
827.437	43.6
827.611	43.23
827.784	42.83
827.958	42.56
828.132	42.97
828.306	42.27
828.48	42.26
828.654	42.17
828.827	41.76
829.001	41.45
829.175	39.97
829.349	38.98
829.522	40.05
829.696	40.51
829.87	41.23
830.044	40.3
830.217	41.71
830.391	43.76
830.565	43.04
830.738	44.46
830.912	42.55
831.085	44.66
831.259	43.16
831.432	40.95
831.606	42.04
831.779	41.65
831.953	42.87
832.126	41.8
832.3	40.04
832.473	40.91
832.647	40.26
832.82	40.28
832.994	40.31
833.167	41
833.34	42.61
833.514	42.35
833.687	42.17
833.86	42.17
834.034	42.62
834.207	43.1
834.38	42.8
834.553	42.93
834.727	44.15
834.9	42.84
835.073	43
835.246	41.64
835.419	40.24
835.593	40.56
835.766	39.88
835.939	39.01
836.112	39.18
836.285	40.09
836.458	40.76
836.631	41
836.804	42.6
836.977	43.12
837.15	43.78
837.323	46.43
837.496	45.55
837.669	46.17
837.842	47.31
838.015	45.05
838.188	43.83
838.361	41.09
838.533	37.6
838.706	39.66
838.879	37.4
839.052	39.72
839.225	37.73
839.398	38.67
839.57	38.78
839.743	38.1
839.916	38.56
840.088	39.55
840.261	41.04
840.434	42.67
840.607	40.19
840.779	42.63
840.952	40.5
841.124	42.09
841.297	40.32
841.47	41.09
841.642	40.32
841.815	38.9
841.987	38.57
842.16	38.92
842.332	37.62
842.505	38.01
842.677	37.42
842.85	35.93
843.022	36.22
843.194	35.58
843.367	33.64
843.539	36.16
843.712	39.22
843.884	39.02
844.056	38.8
844.229	41.03
844.401	41.26
844.573	40.06
844.745	41.2
844.918	38.26
845.09	43.15
845.262	45.24
845.434	41.55
845.606	43.15
845.779	42.56
845.951	41.26
846.123	40.88
846.295	40
846.467	40.01
846.639	39.56
846.811	40.69
846.983	37.57
847.155	36.27
847.327	35.69
847.499	35.68
847.671	35.97
847.843	37.22
848.015	40.46
848.187	42.02
848.359	42.95
848.531	41.97
848.703	39.98
848.875	40.83
849.047	39.54
849.218	40.39
849.39	37.19
849.562	38.32
849.734	38.45
849.905	35.46
850.077	38.3
850.249	37.66
850.421	39.39
850.592	42.26
850.764	41.69
850.936	42.85
851.107	42.12
851.279	45.76
851.451	44.95
851.622	43.82
851.794	43.76
851.965	41.79
852.137	41.66
852.308	37.45
852.48	32.71
852.651	36.31
852.823	38.26
852.994	42.94
853.166	37.75
853.337	39.32
853.509	36.93
853.68	36.23
853.851	34.98
854.023	33.87
854.194	41.94
854.365	48.51
854.537	43.86
854.708	40.56
854.879	38.8
855.05	38.82
855.222	36.13
855.393	39.2
855.564	39.65
855.735	42.37
855.906	40.64
856.078	33.35
856.249	33.56
856.42	33.18
856.591	34.29
856.762	31.74
856.933	34.36
857.104	34.34
857.275	36.49
857.446	33.81
857.617	28.5
857.788	34.24
857.959	41.82
858.13	39.2
858.301	43.21
858.472	42.86
858.643	42.41
858.814	43.65
858.985	40.41
859.155	39.88
859.326	43.15
859.497	51.33
859.668	49.81
859.839	45.91
860.009	49.64
860.18	49.7
860.351	54.86
860.522	58.89
860.692	55.82
860.863	60.72
861.034	61.85
861.204	58.84
861.375	49.15
861.546	42.97
861.716	49.42
861.887	47.24
862.057	45.66
862.228	43.67
862.398	35.28
862.569	35.29
862.739	35.65
862.91	33.94
863.08	36.94
863.251	44.1
863.421	49.39
863.592	45.48
863.762	49.16
863.932	51.84
864.103	49.23
864.273	55.48
864.443	60.7
864.614	60.12
864.784	49.39
864.954	45.41
865.125	42.32
865.295	41.51
865.465	44.22
865.635	33.19
865.805	32.5
865.976	30.02
866.146	29.87
866.316	26.23
866.486	20.89
866.656	30.42
866.826	30.15
866.996	35.74
867.166	36.32
867.336	32.96
867.506	41.73
867.676	38.59
867.846	43.47
868.016	39.89
868.186	40.39
868.356	39.97
868.526	36.22
868.696	43.09
868.866	39.28
869.036	38.54
869.206	34.78
869.376	30.69
869.545	31.8
869.715	26.33
869.885	30.12
870.055	30.16
870.224	33.63
870.394	31.92
870.564	31.6
870.734	29.68
870.903	30.8
871.073	32.64
871.243	31.39
871.412	30.86
871.582	39.26
871.751	36.74
871.921	34.07
872.091	33.6
872.26	40.1
872.43	42.57
872.599	46.23
872.769	48.93
872.938	47.19
873.108	51.32
873.277	47.16
873.446	46.05
873.616	46.24
873.785	52.92
873.955	57.31
874.124	54.87
874.293	50.05
874.463	51.01
874.632	47.44
874.801	53.45
874.971	52.88
875.14	53.09
875.309	51.97
875.478	50.64
875.647	42.6
875.817	36.65
875.986	35.48
876.155	32.77
876.324	32.68
876.493	38.54
876.662	37.97
876.831	37.72
877	40.88
877.17	39.15
877.339	41.48
877.508	47.36
877.677	43.37
877.846	45.15
878.015	51.34
878.184	48.72
878.352	46.43
878.521	46.2
878.69	46.18
878.859	49.28
879.028	46.97
879.197	49.3
879.366	48.85
879.534	50.87
879.703	49.52
879.872	46.16
880.041	45.86
880.21	43.24
880.378	41.68
880.547	39.48
880.716	36.52
880.884	36.95
881.053	35.6
881.222	34.94
881.39	34.1
881.559	33.71
881.727	34.51
881.896	33.59
882.065	34.36
882.233	34.32
882.402	34.21
882.57	34.66
882.739	34.92
882.907	34.59
883.076	34.68
883.244	35.28
883.412	35.37
883.581	34.39
883.749	34.03
883.918	33.81
884.086	33.09
884.254	33.09
884.423	34.23
884.591	34.19
884.759	34.7
884.927	34.79
885.096	34.81
885.264	35.19
885.432	35.89
885.6	37.21
885.769	37.54
885.937	39.44
886.105	39.7
886.273	37.11
886.441	36.4
886.609	35.66
886.777	36.14
886.945	38.3
887.113	34.61
887.281	34.52
887.449	35.8
887.617	32.71
887.785	31.1
887.953	32.81
888.121	36.21
888.289	35.3
888.457	37.39
888.625	37.27
888.793	33.39
888.961	38.67
889.129	35.7
889.296	32.96
889.464	36.07
889.632	37.9
889.8	36.37
889.967	29.67
890.135	31.7
