Data from 2938713__Reflection_03.txt Node
Date: Tue Mar 17 19:16:52 EDT 2015
User: robert
Spectrometer: USB4E03002
Autoset integration time: false
Trigger mode: 4
Integration Time (sec): 1.000000E-1
Scans to average: 10
Electric dark correction enabled: false
Nonlinearity correction enabled: false
Boxcar width: 5
Stray light correction enabled: false
XAxis mode: Wavelengths
Stop averaging: false
Number of Pixels in Spectrum: 3648
>>>>>Begin Spectral Data<<<<<
177.575	-938.89
177.794	-209.3
178.014	-102.26
178.233	-241.41
178.452	-498.28
178.672	-267.31
178.891	-199.25
179.11	-146.86
179.33	-125.19
179.549	-86.72
179.768	-68.11
179.987	-42.89
180.207	-58.36
180.426	-117.52
180.645	-172.62
180.864	-980
181.084	2885.71
181.303	-642.86
181.522	162.12
181.741	50.56
181.96	29.29
182.179	31.95
182.398	27.71
182.618	34.78
182.837	44.6
183.056	46.7
183.275	64.63
183.494	55.66
183.713	70.41
183.932	94.42
184.151	125.12
184.37	169.15
184.589	223.76
184.808	247.47
185.027	157.07
185.246	169.09
185.465	135.31
185.684	101.28
185.903	83.23
186.122	220.75
186.341	9.86
186.56	-140.58
186.779	8.13
186.998	57.31
187.216	54.14
187.435	3.42
187.654	-26.1
187.873	-76.43
188.092	35.32
188.311	86.52
188.53	98.55
188.748	57.63
188.967	61.11
189.186	93.68
189.405	41.12
189.623	75.53
189.842	24.89
190.061	79.08
190.28	73.69
190.498	57.14
190.717	40.36
190.936	-64.25
191.154	42.67
191.373	17
191.592	67.88
191.81	130
192.029	137.92
192.248	120.23
192.466	103.39
192.685	96.51
192.904	68.94
193.122	67.06
193.341	95.18
193.559	104.88
193.778	119.35
193.996	95.09
194.215	77.26
194.433	56.41
194.652	91.51
194.87	86.27
195.089	104.26
195.307	152.36
195.526	156.84
195.744	120.27
195.963	96.48
196.181	94.87
196.399	38.36
196.618	24.07
196.836	27.45
197.055	-176.81
197.273	-131.17
197.491	-1600
197.71	269.7
197.928	535.63
198.146	779.07
198.365	815.38
198.583	-10100
198.801	165.1
199.019	181.82
199.238	105.88
199.456	49.21
199.674	47.22
199.892	72.23
200.111	55.63
200.329	63.5
200.547	51.73
200.765	53.17
200.983	47.64
201.202	41.14
201.42	43.7
201.638	35.09
201.856	27.01
202.074	29.45
202.292	23.31
202.51	21.59
202.728	33.28
202.946	60.76
203.165	68.84
203.383	73.8
203.601	60
203.819	51.56
204.037	53.09
204.255	55.21
204.473	43.49
204.691	26.76
204.909	22.98
205.127	25.15
205.345	-13.06
205.562	-40.8
205.78	-50.31
205.998	-66.17
206.216	-120
206.434	-190.52
206.652	22000
206.87	266.34
207.088	79.41
207.306	241.07
207.523	-101.05
207.741	5.23
207.959	-17.43
208.177	-2.26
208.395	11.24
208.612	26.24
208.83	39.44
209.048	22.3
209.266	14.66
209.483	-57.81
209.701	-11.59
209.919	-40.39
210.136	-131.18
210.354	-85.71
210.572	-30.74
210.79	-52.94
211.007	-111.88
211.225	-20.29
211.442	-67.08
211.66	-0.66
211.878	11.69
212.095	4.03
212.313	-23.51
212.53	-13.44
212.748	-17.43
212.966	-7.06
213.183	-13.94
213.401	-2.94
213.618	1.35
213.836	9.56
214.053	-5.18
214.271	0.96
214.488	-5.76
214.705	19.91
214.923	29
215.14	37.43
215.358	31.78
215.575	40.46
215.793	42.17
216.01	9.29
216.227	27.24
216.445	36.24
216.662	31.57
216.879	41.91
217.097	26.44
217.314	17.18
217.531	10.4
217.749	7.83
217.966	5.04
218.183	20.93
218.4	38.14
218.618	22.79
218.835	13.37
219.052	17.54
219.269	9.75
219.487	18.56
219.704	14.23
219.921	19.63
220.138	19.52
220.355	25.17
220.572	4.91
220.79	8.56
221.007	13.69
221.224	7.94
221.441	6.55
221.658	11.9
221.875	6.04
222.092	3.25
222.309	-2.07
222.526	5.68
222.743	6.01
222.96	5.44
223.177	-1.24
223.394	-10.47
223.611	-8.12
223.828	-4.95
224.045	-7.59
224.262	-4.19
224.479	4.01
224.696	-3.58
224.913	-12.22
225.13	-12.73
225.347	-1.86
225.564	-2.66
225.781	-2.18
225.997	1.43
226.214	1.76
226.431	1.59
226.648	3.27
226.865	1.4
227.082	2.77
227.298	6.38
227.515	5.61
227.732	4.63
227.949	5.46
228.165	6.03
228.382	5.34
228.599	4.79
228.816	4.75
229.032	4.31
229.249	4.49
229.466	5.23
229.682	3.85
229.899	3.69
230.116	3.83
230.332	4.13
230.549	3.67
230.765	3.88
230.982	4.54
231.199	4.25
231.415	4.22
231.632	2.69
231.848	2.39
232.065	2.88
232.281	2.29
232.498	3.01
232.714	2.85
232.931	4.21
233.147	3.77
233.364	3.87
233.58	4.91
233.797	4.25
234.013	4.83
234.23	3.75
234.446	3.85
234.662	3.05
234.879	0.24
235.095	0.15
235.312	-1.02
235.528	0.34
235.744	-1.37
235.961	-1.6
236.177	0.21
236.393	0.92
236.61	1.72
236.826	0.95
237.042	-0.01
237.258	0.93
237.475	1.39
237.691	1.44
237.907	-0.26
238.123	1.18
238.339	0.74
238.556	-0.87
238.772	-2.35
238.988	-0.9
239.204	0.2
239.42	3.74
239.636	3.56
239.853	2.91
240.069	2.54
240.285	3.03
240.501	3.11
240.717	2.93
240.933	3.15
241.149	4.57
241.365	3.95
241.581	3.29
241.797	2.92
242.013	3.05
242.229	3.36
242.445	3.84
242.661	3.6
242.877	3.04
243.093	3.3
243.309	2.78
243.525	2.45
243.741	2.46
243.957	2.56
244.173	2.49
244.388	1.99
244.604	1.35
244.82	0.57
245.036	0.89
245.252	2.14
245.468	2.66
245.683	2.96
245.899	2.96
246.115	3.3
246.331	4.08
246.547	4.02
246.762	4.31
246.978	4.56
247.194	4.91
247.409	4.99
247.625	4.86
247.841	4.73
248.057	5.11
248.272	5.18
248.488	4.86
248.703	4.41
248.919	4.89
249.135	5.03
249.35	5.22
249.566	5.58
249.782	5.05
249.997	5.16
250.213	4.48
250.428	4.17
250.644	3.96
250.859	4.42
251.075	5.53
251.29	4.55
251.506	3.54
251.721	2.74
251.937	1.9
252.152	2.66
252.368	2.34
252.583	2.86
252.798	2.46
253.014	2.69
253.229	2.77
253.445	1.56
253.66	1.8
253.875	1.97
254.091	1.85
254.306	1.29
254.521	1
254.737	1.41
254.952	1.51
255.167	1.55
255.383	0.97
255.598	0.13
255.813	0.8
256.028	0.2
256.244	0.67
256.459	1.44
256.674	1.75
256.889	1.39
257.104	1.5
257.32	1.53
257.535	1.87
257.75	2.28
257.965	3.1
258.18	3.43
258.395	3.37
258.61	3.74
258.826	3.48
259.041	3.63
259.256	3.68
259.471	3.65
259.686	3.67
259.901	3.58
260.116	3.73
260.331	3.45
260.546	2.9
260.761	2.64
260.976	2.27
261.191	2.32
261.406	2.49
261.621	2.3
261.836	2.07
262.05	1.92
262.265	1.66
262.48	0.93
262.695	0.8
262.91	0.95
263.125	1.76
263.34	1.89
263.555	1.93
263.769	1.19
263.984	2.05
264.199	1.93
264.414	1.91
264.629	2.41
264.843	2.46
265.058	2.51
265.273	3.32
265.488	3.19
265.702	3.8
265.917	3.29
266.132	3.49
266.346	3.09
266.561	2.88
266.776	2.9
266.99	3.14
267.205	3.34
267.42	3.5
267.634	2.96
267.849	2.83
268.063	2.41
268.278	2.38
268.492	2.33
268.707	2.43
268.922	2.89
269.136	2.9
269.351	2.93
269.565	2.85
269.78	2.55
269.994	2.66
270.209	2.94
270.423	2.54
270.637	2.39
270.852	2.61
271.066	2.64
271.281	2.53
271.495	2.55
271.709	2.16
271.924	2.24
272.138	2.38
272.353	2.42
272.567	2.2
272.781	2.79
272.996	3.06
273.21	3.05
273.424	2.8
273.638	2.62
273.853	2.76
274.067	2.87
274.281	2.45
274.495	2.18
274.71	2.2
274.924	2.32
275.138	2.14
275.352	2.02
275.566	1.57
275.781	1.96
275.995	2.03
276.209	1.65
276.423	1.36
276.637	1.84
276.851	1.76
277.065	1.71
277.279	1.38
277.493	1.44
277.707	1.75
277.921	1.95
278.135	1.85
278.349	1.75
278.563	1.92
278.777	1.77
278.991	1.44
279.205	1.76
279.419	1.63
279.633	1.86
279.847	1.6
280.061	1.14
280.275	1.15
280.489	1.1
280.703	1.17
280.917	1.29
281.131	1.74
281.344	1.99
281.558	1.63
281.772	2.13
281.986	2.04
282.2	2
282.414	1.86
282.627	1.87
282.841	2.02
283.055	1.87
283.269	2
283.482	2.03
283.696	2.12
283.91	2.35
284.123	1.71
284.337	2.08
284.551	2.3
284.764	3.09
284.978	2.95
285.192	2.52
285.405	2.53
285.619	2.38
285.833	2.2
286.046	2.43
286.26	2.7
286.473	2.92
286.687	2.7
286.9	2.45
287.114	2.16
287.327	2.56
287.541	2.74
287.754	2.87
287.968	2.85
288.181	2.95
288.395	2.28
288.608	2.24
288.822	2.42
289.035	2.71
289.248	3.04
289.462	2.84
289.675	2.76
289.889	2.91
290.102	3.04
290.315	2.99
290.529	2.98
290.742	3.33
290.955	3.23
291.169	3.05
291.382	3.03
291.595	2.87
291.808	2.75
292.022	2.21
292.235	1.83
292.448	1.96
292.661	2
292.875	1.76
293.088	2.07
293.301	1.91
293.514	1.97
293.727	2.08
293.94	2.66
294.153	2.87
294.367	3.39
294.58	3.85
294.793	3.75
295.006	3.8
295.219	4.02
295.432	3.88
295.645	4.19
295.858	4.49
296.071	4.33
296.284	4.23
296.497	4.49
296.71	4.43
296.923	4.56
297.136	4.68
297.349	4.99
297.562	5.34
297.775	5.33
297.988	5.42
298.201	5.34
298.414	5.4
298.626	5.5
298.839	5.63
299.052	5.88
299.265	5.92
299.478	6.12
299.691	6.15
299.903	6.11
300.116	6.44
300.329	6.54
300.542	6.79
300.755	7.02
300.967	6.78
301.18	6.81
301.393	6.53
301.605	6.55
301.818	6.41
302.031	6.32
302.243	6.75
302.456	6.63
302.669	6.83
302.881	6.86
303.094	6.93
303.307	7.1
303.519	7.15
303.732	7.63
303.944	7.67
304.157	7.47
304.37	7.67
304.582	7.21
304.795	7.31
305.007	6.95
305.22	6.76
305.432	6.5
305.645	6.86
305.857	6.91
306.069	6.96
306.282	6.72
306.494	7.1
306.707	6.93
306.919	6.97
307.132	6.93
307.344	7.24
307.556	7.67
307.769	8.27
307.981	8.34
308.193	8.42
308.406	8.23
308.618	8.34
308.83	8.26
309.043	8.52
309.255	8.54
309.467	8.65
309.679	8.65
309.892	8.59
310.104	8.3
310.316	7.99
310.528	7.97
310.74	8.03
310.953	8.32
311.165	8.48
311.377	8.34
311.589	8.75
311.801	8.94
312.013	8.53
312.225	8.47
312.437	8.45
312.649	8.56
312.862	8.52
313.074	8.55
313.286	8.03
313.498	8.17
313.71	8.21
313.922	7.78
314.134	7.31
314.346	7.75
314.558	7.88
314.77	7.89
314.982	7.94
315.193	8.09
315.405	8.28
315.617	8.72
315.829	8.61
316.041	8.58
316.253	8.69
316.465	8.88
316.677	9.2
316.888	9.14
317.1	9.1
317.312	9.6
317.524	9.5
317.736	9.6
317.947	9.7
318.159	9.54
318.371	9.35
318.583	9.39
318.794	9.52
319.006	9.37
319.218	9.1
319.43	9.15
319.641	8.91
319.853	9.01
320.064	8.91
320.276	8.62
320.488	9.32
320.699	9.43
320.911	9.2
321.123	8.95
321.334	8.82
321.546	9.6
321.757	10.23
321.969	10.29
322.18	10.14
322.392	10.26
322.603	10.46
322.815	10.05
323.026	10.26
323.238	10.54
323.449	10.26
323.661	10.7
323.872	10.06
324.083	9.75
324.295	9.3
324.506	9.38
324.718	9.15
324.929	9.24
325.14	9.17
325.352	9.08
325.563	9.12
325.774	9.16
325.986	9.03
326.197	9.29
326.408	8.93
326.62	9.16
326.831	9.55
327.042	9.84
327.253	9.79
327.464	10.03
327.676	10.04
327.887	10.1
328.098	10.31
328.309	10.26
328.52	10.55
328.732	11.09
328.943	11.14
329.154	11.25
329.365	11.41
329.576	11.75
329.787	11.55
329.998	11.46
330.209	11.59
330.42	11.7
330.631	11.66
330.842	11.66
331.053	11.38
331.264	11.61
331.475	11.48
331.686	11.34
331.897	11.36
332.108	11.52
332.319	12.13
332.53	11.76
332.741	11.58
332.952	11.53
333.163	11.41
333.374	11.69
333.585	11.56
333.795	11
334.006	10.76
334.217	10.45
334.428	10.1
334.639	10.04
334.849	10.32
335.06	10.67
335.271	10.81
335.482	10.64
335.692	10.88
335.903	11.19
336.114	11.64
336.325	11.65
336.535	11.6
336.746	11.93
336.957	12.03
337.167	12.22
337.378	12.06
337.589	11.83
337.799	11.94
338.01	11.66
338.22	11.51
338.431	11.83
338.642	11.86
338.852	11.93
339.063	11.94
339.273	11.68
339.484	11.47
339.694	11.89
339.905	12.37
340.115	12.45
340.326	12.31
340.536	12.36
340.746	12.11
340.957	12.58
341.167	12.98
341.378	12.9
341.588	12.69
341.799	12.78
342.009	12.17
342.219	11.84
342.43	11.82
342.64	11.87
342.85	11.73
343.061	11.5
343.271	11.16
343.481	11.09
343.691	11.18
343.902	11.33
344.112	11.26
344.322	11.91
344.532	12.11
344.743	12.13
344.953	12.31
345.163	12.5
345.373	12.65
345.583	12.78
345.793	12.47
346.004	12.52
346.214	12.6
346.424	12.61
346.634	12.13
346.844	12.1
347.054	12.12
347.264	12.09
347.474	11.86
347.684	11.8
347.894	11.66
348.104	11.88
348.314	11.8
348.524	12.07
348.734	12.05
348.944	12.41
349.154	12.5
349.364	12.5
349.574	12.45
349.784	12.32
349.994	12.57
350.204	12.68
350.413	12.64
350.623	12.55
350.833	12.24
351.043	12.11
351.253	11.82
351.463	11.49
351.672	11.27
351.882	11.14
352.092	11.11
352.302	10.99
352.511	10.91
352.721	11.01
352.931	11.08
353.141	11.38
353.35	11.58
353.56	11.58
353.77	11.85
353.979	12.02
354.189	12.03
354.399	12.06
354.608	11.81
354.818	11.87
355.027	11.65
355.237	11.69
355.447	11.48
355.656	11.4
355.866	11.55
356.075	11.49
356.285	11.32
356.494	11.39
356.704	11.42
356.913	11.44
357.123	10.92
357.332	10.97
357.542	10.9
357.751	10.82
357.96	10.57
358.17	10.59
358.379	10.46
358.589	10.8
358.798	10.78
359.007	10.72
359.217	10.71
359.426	11.19
359.635	10.97
359.845	10.86
360.054	10.79
360.263	10.86
360.472	11.15
360.682	11.25
360.891	11.18
361.1	11.14
361.309	11.19
361.519	11.38
361.728	11.24
361.937	11.41
362.146	11.31
362.355	11.42
362.564	11.46
362.774	11.24
362.983	11.17
363.192	10.94
363.401	10.93
363.61	10.75
363.819	10.49
364.028	10.41
364.237	10.39
364.446	10.61
364.655	10.63
364.864	10.76
365.073	10.62
365.282	10.4
365.491	10.4
365.7	10.23
365.909	10.21
366.118	10.27
366.327	10.15
366.536	10.2
366.745	10.1
366.954	9.79
367.162	9.43
367.371	9.5
367.58	9.48
367.789	9.42
367.998	9.42
368.207	9.57
368.415	9.38
368.624	9.48
368.833	9.31
369.042	9.08
369.25	9.24
369.459	9.49
369.668	9.34
369.877	9.42
370.085	9.35
370.294	9.54
370.503	9.51
370.711	9.5
370.92	9.65
371.129	9.7
371.337	9.73
371.546	9.58
371.754	9.37
371.963	9.27
372.171	9.33
372.38	9.22
372.589	9.1
372.797	8.8
373.006	8.84
373.214	8.68
373.423	8.52
373.631	8.41
373.84	8.42
374.048	8.45
374.256	8.4
374.465	8.08
374.673	8.46
374.882	8.42
375.09	8.57
375.298	8.29
375.507	8.24
375.715	8.21
375.923	8.22
376.132	8.24
376.34	8.26
376.548	8.08
376.757	7.99
376.965	7.7
377.173	7.55
377.381	7.54
377.59	7.52
377.798	7.36
378.006	7.2
378.214	7.22
378.423	6.96
378.631	6.71
378.839	6.63
379.047	6.88
379.255	6.77
379.463	6.75
379.671	6.76
379.879	6.85
380.088	6.87
380.296	7.09
380.504	7.13
380.712	7.24
380.92	7.26
381.128	7.44
381.336	7.36
381.544	7.37
381.752	7.27
381.96	7.1
382.168	7.1
382.376	7.28
382.584	7.07
382.791	7.11
382.999	6.98
383.207	7.01
383.415	6.8
383.623	6.72
383.831	6.72
384.039	6.84
384.247	7.09
384.454	6.92
384.662	6.65
384.87	6.67
385.078	6.45
385.285	6.52
385.493	6.5
385.701	6.53
385.909	6.34
386.116	6.25
386.324	6.06
386.532	5.65
386.739	5.76
386.947	5.99
387.155	5.92
387.362	5.82
387.57	5.79
387.778	5.87
387.985	5.83
388.193	6.06
388.4	6.06
388.608	6.19
388.816	6.08
389.023	5.91
389.231	5.64
389.438	5.64
389.646	5.87
389.853	5.6
390.061	5.54
390.268	5.66
390.475	5.4
390.683	5.37
390.89	5.33
391.098	5.49
391.305	5.52
391.512	5.57
391.72	5.44
391.927	5.26
392.135	5.37
392.342	5.28
392.549	5.13
392.756	5.17
392.964	5.01
393.171	4.88
393.378	4.92
393.586	4.8
393.793	4.89
394	4.93
394.207	5.04
394.414	5.21
394.622	5.08
394.829	5.16
395.036	5.17
395.243	5.2
395.45	5.2
395.657	5.13
395.864	5.34
396.072	5.2
396.279	5.22
396.486	4.97
396.693	4.77
396.9	4.81
397.107	4.63
397.314	4.65
397.521	4.83
397.728	4.7
397.935	4.74
398.142	4.43
398.349	4.34
398.556	4.24
398.763	4.31
398.97	4.44
399.177	4.51
399.383	4.4
399.59	4.27
399.797	4.34
400.004	4.51
400.211	4.58
400.418	4.73
400.625	4.86
400.831	5.15
401.038	5.08
401.245	4.96
401.452	4.89
401.658	5.09
401.865	5.15
402.072	5.05
402.279	5.13
402.485	4.88
402.692	4.94
402.899	4.82
403.105	4.6
403.312	4.66
403.519	4.59
403.725	4.59
403.932	4.72
404.138	4.76
404.345	4.6
404.552	4.54
404.758	4.63
404.965	4.65
405.171	4.61
405.378	4.58
405.584	4.59
405.791	4.58
405.997	4.62
406.204	4.49
406.41	4.54
406.617	4.58
406.823	4.46
407.029	4.42
407.236	4.36
407.442	4.41
407.649	4.47
407.855	4.37
408.061	4.44
408.268	4.42
408.474	4.46
408.68	4.47
408.887	4.49
409.093	4.45
409.299	4.59
409.505	4.57
409.712	4.52
409.918	4.39
410.124	4.5
410.33	4.47
410.537	4.44
410.743	4.36
410.949	4.19
411.155	4.2
411.361	4.35
411.567	4.23
411.773	4.18
411.98	4.15
412.186	4.19
412.392	4.02
412.598	3.96
412.804	4.05
413.01	4.08
413.216	4.06
413.422	4.07
413.628	4.07
413.834	3.91
414.04	3.99
414.246	3.97
414.452	4.1
414.658	4.19
414.864	4.27
415.07	4.07
415.275	4.17
415.481	4.21
415.687	4.14
415.893	4.02
416.099	4.1
416.305	4.05
416.511	4.08
416.716	3.95
416.922	4.03
417.128	4.01
417.334	4.05
417.539	3.98
417.745	4.07
417.951	4.09
418.157	4.12
418.362	4.11
418.568	4.12
418.774	4.12
418.979	4.1
419.185	4.08
419.391	4.1
419.596	4.05
419.802	3.99
420.008	3.99
420.213	3.85
420.419	3.85
420.624	3.88
420.83	3.9
421.035	3.9
421.241	3.93
421.446	3.96
421.652	3.96
421.857	4.01
422.063	4.05
422.268	3.98
422.474	4.11
422.679	4.1
422.885	4.07
423.09	4
423.295	4.01
423.501	4.04
423.706	3.99
423.911	3.91
424.117	3.9
424.322	3.94
424.527	3.96
424.733	3.9
424.938	3.88
425.143	3.91
425.349	3.98
425.554	3.97
425.759	3.95
425.964	3.96
426.169	4.04
426.375	4.07
426.58	4.08
426.785	4.02
426.99	4.01
427.195	3.98
427.4	3.92
427.605	3.82
427.811	3.8
428.016	3.69
428.221	3.58
428.426	3.42
428.631	3.25
428.836	3.07
429.041	3.04
429.246	3.1
429.451	3.13
429.656	3.16
429.861	3.12
430.066	3.06
430.271	3.22
430.476	3.29
430.681	3.45
430.886	3.55
431.09	3.67
431.295	3.8
431.5	3.8
431.705	3.83
431.91	3.71
432.115	3.79
432.32	3.88
432.524	3.82
432.729	3.76
432.934	3.7
433.139	3.66
433.343	3.59
433.548	3.57
433.753	3.6
433.958	3.57
434.162	3.68
434.367	3.76
434.572	3.67
434.776	3.71
434.981	3.74
435.186	3.81
435.39	3.88
435.595	3.95
435.799	3.89
436.004	3.93
436.209	3.91
436.413	3.8
436.618	3.68
436.822	3.8
437.027	3.75
437.231	3.72
437.436	3.68
437.64	3.73
437.845	3.68
438.049	3.75
438.253	3.62
438.458	3.72
438.662	3.82
438.867	3.92
439.071	3.89
439.275	3.95
439.48	3.97
439.684	3.93
439.888	3.89
440.093	3.85
440.297	3.78
440.501	3.88
440.706	3.85
440.91	3.83
441.114	3.76
441.318	3.74
441.523	3.72
441.727	3.76
441.931	3.85
442.135	3.81
442.339	3.83
442.543	3.82
442.748	3.78
442.952	3.81
443.156	3.76
443.36	3.78
443.564	3.76
443.768	3.65
443.972	3.6
444.176	3.52
444.38	3.56
444.584	3.58
444.788	3.69
444.992	3.68
445.196	3.67
445.4	3.73
445.604	3.72
445.808	3.72
446.012	3.83
446.216	3.85
446.42	3.85
446.624	3.82
446.828	3.76
447.032	3.7
447.235	3.63
447.439	3.58
447.643	3.51
447.847	3.46
448.051	3.43
448.254	3.37
448.458	3.29
448.662	3.33
448.866	3.34
449.069	3.41
449.273	3.33
449.477	3.38
449.681	3.35
449.884	3.42
450.088	3.47
450.292	3.46
450.495	3.35
450.699	3.36
450.902	3.27
451.106	3.31
451.31	3.27
451.513	3.38
451.717	3.44
451.92	3.47
452.124	3.46
452.327	3.48
452.531	3.51
452.734	3.58
452.938	3.63
453.141	3.58
453.345	3.57
453.548	3.64
453.752	3.54
453.955	3.52
454.158	3.47
454.362	3.44
454.565	3.38
454.769	3.49
454.972	3.47
455.175	3.42
455.379	3.38
455.582	3.39
455.785	3.33
455.988	3.29
456.192	3.3
456.395	3.32
456.598	3.26
456.801	3.36
457.005	3.33
457.208	3.31
457.411	3.25
457.614	3.36
457.817	3.26
458.021	3.21
458.224	3.25
458.427	3.26
458.63	3.34
458.833	3.36
459.036	3.31
459.239	3.24
459.442	3.32
459.645	3.38
459.848	3.38
460.051	3.42
460.254	3.42
460.457	3.44
460.66	3.47
460.863	3.44
461.066	3.43
461.269	3.45
461.472	3.52
461.675	3.48
461.878	3.49
462.081	3.41
462.284	3.41
462.486	3.5
462.689	3.6
462.892	3.55
463.095	3.55
463.298	3.64
463.5	3.56
463.703	3.32
463.906	3.34
464.109	3.33
464.311	3.46
464.514	3.46
464.717	3.56
464.92	3.45
465.122	3.46
465.325	3.51
465.528	3.53
465.73	3.62
465.933	3.78
466.135	3.75
466.338	3.8
466.541	3.83
466.743	3.8
466.946	3.68
467.148	3.74
467.351	3.66
467.553	3.66
467.756	3.6
467.958	3.6
468.161	3.61
468.363	3.64
468.566	3.54
468.768	3.52
468.971	3.6
469.173	3.67
469.375	3.62
469.578	3.67
469.78	3.69
469.983	3.68
470.185	3.71
470.387	3.76
470.59	3.8
470.792	3.77
470.994	3.69
471.196	3.69
471.399	3.79
471.601	3.8
471.803	3.74
472.005	3.81
472.208	3.84
472.41	3.72
472.612	3.64
472.814	3.59
473.016	3.66
473.218	3.62
473.421	3.55
473.623	3.32
473.825	3.4
474.027	3.51
474.229	3.42
474.431	3.43
474.633	3.53
474.835	3.47
475.037	3.53
475.239	3.54
475.441	3.6
475.643	3.62
475.845	3.75
476.047	3.67
476.249	3.64
476.451	3.64
476.653	3.61
476.855	3.54
477.057	3.6
477.258	3.59
477.46	3.67
477.662	3.69
477.864	3.69
478.066	3.67
478.268	3.69
478.469	3.7
478.671	3.7
478.873	3.71
479.075	3.71
479.276	3.7
479.478	3.66
479.68	3.59
479.882	3.62
480.083	3.57
480.285	3.6
480.487	3.6
480.688	3.57
480.89	3.51
481.091	3.5
481.293	3.53
481.495	3.52
481.696	3.48
481.898	3.49
482.099	3.41
482.301	3.48
482.502	3.44
482.704	3.42
482.905	3.4
483.107	3.42
483.308	3.43
483.51	3.43
483.711	3.43
483.913	3.45
484.114	3.43
484.315	3.47
484.517	3.46
484.718	3.48
484.92	3.5
485.121	3.52
485.322	3.55
485.524	3.56
485.725	3.58
485.926	3.61
486.127	3.61
486.329	3.64
486.53	3.62
486.731	3.59
486.932	3.59
487.134	3.57
487.335	3.56
487.536	3.54
487.737	3.54
487.938	3.55
488.139	3.53
488.341	3.56
488.542	3.59
488.743	3.58
488.944	3.61
489.145	3.63
489.346	3.64
489.547	3.69
489.748	3.68
489.949	3.68
490.15	3.65
490.351	3.68
490.552	3.66
490.753	3.66
490.954	3.67
491.155	3.65
491.356	3.66
491.557	3.66
491.758	3.65
491.959	3.66
492.159	3.72
492.36	3.76
492.561	3.79
492.762	3.75
492.963	3.72
493.164	3.74
493.364	3.77
493.565	3.75
493.766	3.75
493.967	3.76
494.167	3.81
494.368	3.69
494.569	3.71
494.769	3.7
494.97	3.81
495.171	3.88
495.371	3.92
495.572	3.89
495.773	3.93
495.973	3.94
496.174	3.9
496.375	3.94
496.575	3.97
496.776	3.98
496.976	3.95
497.177	3.96
497.377	3.97
497.578	4
497.778	4.04
497.979	4.04
498.179	4.18
498.38	4.22
498.58	4.2
498.78	4.25
498.981	4.21
499.181	4.28
499.382	4.3
499.582	4.24
499.782	4.27
499.983	4.28
500.183	4.34
500.383	4.26
500.584	4.32
500.784	4.38
500.984	4.47
501.184	4.55
501.385	4.55
501.585	4.61
501.785	4.77
501.985	4.8
502.185	4.86
502.386	4.87
502.586	4.89
502.786	4.96
502.986	4.91
503.186	4.89
503.386	4.87
503.586	4.89
503.786	4.8
503.987	4.79
504.187	4.82
504.387	4.95
504.587	5.01
504.787	5.04
504.987	5.12
505.187	5.16
505.387	5.21
505.587	5.25
505.786	5.37
505.986	5.51
506.186	5.53
506.386	5.58
506.586	5.55
506.786	5.59
506.986	5.62
507.186	5.64
507.386	5.77
507.585	5.8
507.785	5.83
507.985	5.89
508.185	5.91
508.384	5.98
508.584	5.99
508.784	6.11
508.984	6.21
509.183	6.28
509.383	6.34
509.583	6.33
509.782	6.47
509.982	6.61
510.182	6.66
510.381	6.75
510.581	6.8
510.781	6.91
510.98	6.95
511.18	7
511.379	7.03
511.579	7.06
511.778	7.16
511.978	7.22
512.177	7.24
512.377	7.35
512.576	7.44
512.776	7.56
512.975	7.59
513.175	7.72
513.374	7.8
513.573	7.98
513.773	8.12
513.972	8.18
514.172	8.3
514.371	8.43
514.57	8.43
514.77	8.49
514.969	8.57
515.168	8.7
515.367	8.75
515.567	8.84
515.766	8.88
515.965	9
516.164	9.15
516.364	9.19
516.563	9.37
516.762	9.5
516.961	9.64
517.16	9.77
517.359	9.87
517.559	10
517.758	10.16
517.957	10.22
518.156	10.34
518.355	10.51
518.554	10.61
518.753	10.66
518.952	10.74
519.151	10.8
519.35	10.85
519.549	10.99
519.748	11.14
519.947	11.22
520.146	11.38
520.345	11.55
520.544	11.59
520.743	11.78
520.942	11.88
521.141	12.17
521.339	12.3
521.538	12.6
521.737	12.74
521.936	12.89
522.135	13
522.333	13.19
522.532	13.27
522.731	13.54
522.93	13.62
523.129	13.83
523.327	13.86
523.526	14.19
523.725	14.22
523.923	14.32
524.122	14.41
524.321	14.57
524.519	14.7
524.718	14.85
524.917	14.95
525.115	15.17
525.314	15.3
525.512	15.57
525.711	15.72
525.909	15.84
526.108	16
526.306	16.19
526.505	16.31
526.703	16.46
526.902	16.58
527.1	16.68
527.299	16.76
527.497	16.9
527.696	16.93
527.894	17.01
528.092	17.13
528.291	17.26
528.489	17.35
528.688	17.5
528.886	17.63
529.084	17.75
529.283	17.92
529.481	18.1
529.679	18.27
529.877	18.42
530.076	18.61
530.274	18.82
530.472	18.99
530.67	19.23
530.869	19.42
531.067	19.55
531.265	19.78
531.463	19.96
531.661	20.11
531.859	20.22
532.057	20.38
532.255	20.47
532.454	20.59
532.652	20.74
532.85	20.87
533.048	21
533.246	21.16
533.444	21.25
533.642	21.31
533.84	21.41
534.038	21.59
534.236	21.76
534.434	21.89
534.632	22.02
534.83	22.16
535.027	22.23
535.225	22.32
535.423	22.43
535.621	22.61
535.819	22.77
536.017	22.94
536.215	23.1
536.412	23.15
536.61	23.3
536.808	23.41
537.006	23.53
537.203	23.69
537.401	23.85
537.599	23.94
537.797	24.02
537.994	24.2
538.192	24.31
538.39	24.34
538.587	24.54
538.785	24.76
538.983	24.94
539.18	25.1
539.378	25.19
539.575	25.37
539.773	25.58
539.97	25.77
540.168	25.86
540.366	25.96
540.563	26.1
540.761	26.16
540.958	26.22
541.155	26.33
541.353	26.41
541.55	26.51
541.748	26.64
541.945	26.74
542.143	26.85
542.34	26.94
542.537	27.03
542.735	27.18
542.932	27.37
543.129	27.5
543.327	27.65
543.524	27.8
543.721	28
543.919	28.09
544.116	28.26
544.313	28.39
544.51	28.6
544.708	28.77
544.905	28.88
545.102	29.03
545.299	29.18
545.496	29.31
545.693	29.45
545.891	29.51
546.088	29.62
546.285	29.7
546.482	29.7
546.679	29.76
546.876	29.88
547.073	29.89
547.27	29.91
547.467	29.9
547.664	29.94
547.861	30.03
548.058	30.12
548.255	30.12
548.452	30.18
548.649	30.35
548.846	30.42
549.043	30.47
549.24	30.61
549.437	30.59
549.633	30.68
549.83	30.72
550.027	30.83
550.224	30.93
550.421	31.01
550.618	31.03
550.814	30.93
551.011	30.94
551.208	31.04
551.405	30.97
551.601	31
551.798	31.02
551.995	31.01
552.191	30.99
552.388	30.99
552.585	31.07
552.781	31.11
552.978	31.21
553.175	31.29
553.371	31.19
553.568	31.28
553.764	31.51
553.961	31.55
554.157	31.69
554.354	31.68
554.55	31.71
554.747	31.74
554.943	31.75
555.14	31.83
555.336	31.86
555.533	32.02
555.729	32.02
555.926	31.92
556.122	32.06
556.318	32.08
556.515	32.16
556.711	32.28
556.907	32.29
557.104	32.35
557.3	32.45
557.496	32.41
557.693	32.5
557.889	32.66
558.085	32.8
558.281	32.74
558.478	32.78
558.674	32.76
558.87	32.78
559.066	32.84
559.262	32.89
559.459	32.72
559.655	32.79
559.851	32.76
560.047	32.78
560.243	32.73
560.439	32.76
560.635	32.8
560.831	32.96
561.027	32.92
561.223	32.99
561.419	33.03
561.615	33.22
561.811	33.15
562.007	33.14
562.203	33.1
562.399	33.18
562.595	33.26
562.791	33.23
562.987	33.16
563.183	33.24
563.379	33.37
563.575	33.35
563.771	33.31
563.966	33.47
564.162	33.6
564.358	33.71
564.554	33.78
564.75	33.85
564.945	33.84
565.141	33.9
565.337	33.93
565.533	33.93
565.728	34.03
565.924	34.11
566.12	34.18
566.315	34.24
566.511	34.3
566.707	34.28
566.902	34.24
567.098	34.28
567.293	34.35
567.489	34.34
567.684	34.4
567.88	34.36
568.076	34.47
568.271	34.51
568.467	34.55
568.662	34.59
568.858	34.64
569.053	34.66
569.248	34.78
569.444	34.73
569.639	34.73
569.835	34.74
570.03	34.69
570.225	34.71
570.421	34.64
570.616	34.64
570.812	34.64
571.007	34.61
571.202	34.75
571.397	34.73
571.593	34.76
571.788	34.88
571.983	34.78
572.178	34.98
572.374	35.04
572.569	35.14
572.764	35.15
572.959	35.15
573.154	35.3
573.35	35.2
573.545	35.28
573.74	35.32
573.935	35.24
574.13	35.37
574.325	35.43
574.52	35.49
574.715	35.5
574.91	35.57
575.105	35.63
575.3	35.55
575.495	35.72
575.69	35.69
575.885	35.77
576.08	35.92
576.275	35.94
576.47	35.89
576.665	35.87
576.86	35.96
577.055	35.94
577.25	35.96
577.444	36.08
577.639	36.11
577.834	36.27
578.029	36.32
578.224	36.41
578.418	36.54
578.613	36.64
578.808	36.65
579.003	36.66
579.197	36.8
579.392	36.9
579.587	36.79
579.781	36.86
579.976	36.8
580.171	36.9
580.365	36.92
580.56	36.94
580.755	37.01
580.949	37
581.144	37.05
581.338	37.03
581.533	37.03
581.727	37.24
581.922	37.21
582.116	37.35
582.311	37.42
582.505	37.46
582.7	37.42
582.894	37.32
583.089	37.34
583.283	37.36
583.478	37.32
583.672	37.58
583.866	37.45
584.061	37.48
584.255	37.53
584.449	37.45
584.644	37.44
584.838	37.52
585.032	37.64
585.226	37.76
585.421	37.81
585.615	37.94
585.809	37.72
586.003	37.97
586.198	37.98
586.392	37.98
586.586	37.9
586.78	37.96
586.974	37.88
587.168	37.87
587.363	37.77
587.557	37.68
587.751	37.54
587.945	37.68
588.139	37.61
588.333	37.58
588.527	37.58
588.721	37.68
588.915	37.59
589.109	37.61
589.303	37.76
589.497	37.8
589.691	37.82
589.885	38
590.079	37.92
590.273	37.87
590.466	38.14
590.66	38.1
590.854	38.1
591.048	38.25
591.242	38.33
591.436	38.24
591.629	38.31
591.823	38.38
592.017	38.17
592.211	38.27
592.404	38.42
592.598	38.18
592.792	38.29
592.986	38.36
593.179	38.39
593.373	38.4
593.567	38.38
593.76	38.3
593.954	38.31
594.147	38.48
594.341	38.43
594.535	38.42
594.728	38.53
594.922	38.53
595.115	38.41
595.309	38.35
595.502	38.35
595.696	38.32
595.889	38.26
596.083	38.36
596.276	38.35
596.47	38.39
596.663	38.39
596.856	38.43
597.05	38.49
597.243	38.51
597.437	38.55
597.63	38.63
597.823	38.71
598.017	38.97
598.21	39.08
598.403	39.25
598.596	39.24
598.79	39.26
598.983	39.24
599.176	39.21
599.369	39.35
599.563	39.31
599.756	39.24
599.949	39.31
600.142	39.32
600.335	39.1
600.528	39
600.722	39.05
600.915	39.13
601.108	38.96
601.301	39.06
601.494	39.05
601.687	39.11
601.88	39.03
602.073	39.01
602.266	39.03
602.459	39.02
602.652	38.97
602.845	38.84
603.038	38.67
603.231	38.73
603.424	38.67
603.617	38.7
603.809	38.72
604.002	38.81
604.195	38.73
604.388	38.67
604.581	38.65
604.774	38.68
604.966	38.78
605.159	38.85
605.352	38.98
605.545	38.95
605.737	38.97
605.93	38.91
606.123	38.92
606.316	39.09
606.508	39.08
606.701	39.23
606.894	39.31
607.086	39.33
607.279	39.55
607.471	39.65
607.664	39.73
607.857	39.86
608.049	40.16
608.242	40.46
608.434	40.66
608.627	41.1
608.819	41.63
609.012	42.26
609.204	42.88
609.397	43.41
609.589	43.98
609.782	44.81
609.974	45.56
610.166	46.37
610.359	47.16
610.551	47.76
610.743	48.4
610.936	48.73
611.128	49
611.32	49.16
611.513	49.3
611.705	49.27
611.897	49.12
612.09	48.84
612.282	48.39
612.474	47.94
612.666	47.5
612.858	46.74
613.051	46.36
613.243	45.94
613.435	45.7
613.627	45.34
613.819	45.35
614.011	44.9
614.203	44.74
614.395	44.36
614.588	44.08
614.78	43.95
614.972	43.98
615.164	43.62
615.356	43.26
615.548	42.83
615.74	42.54
615.932	42
616.124	41.96
616.315	41.75
616.507	41.53
616.699	41.28
616.891	41.15
617.083	40.85
617.275	40.94
617.467	41.02
617.659	41.13
617.85	41.08
618.042	41.14
618.234	40.98
618.426	40.87
618.618	40.84
618.809	40.89
619.001	40.86
619.193	41.2
619.384	40.91
619.576	40.85
619.768	40.72
619.959	40.77
620.151	40.66
620.343	40.72
620.534	40.56
620.726	40.71
620.917	40.77
621.109	40.62
621.301	40.51
621.492	40.83
621.684	40.87
621.875	41.04
622.067	40.97
622.258	41.01
622.45	41.07
622.641	41.17
622.832	41.26
623.024	41.22
623.215	41.39
623.407	41.26
623.598	41.25
623.789	41.24
623.981	41.26
624.172	41.26
624.363	41.48
624.555	41.43
624.746	41.52
624.937	41.44
625.129	41.27
625.32	41.2
625.511	41.29
625.702	41.32
625.893	41.3
626.085	41.21
626.276	41.22
626.467	41.01
626.658	40.92
626.849	40.85
627.04	40.97
627.231	41.24
627.422	41.34
627.614	41.23
627.805	41.28
627.996	41.27
628.187	41.36
628.378	41.52
628.569	41.73
628.76	41.95
628.951	42.1
629.142	42.21
629.332	42.39
629.523	42.43
629.714	42.47
629.905	42.36
630.096	42.37
630.287	42.32
630.478	42.34
630.669	42.38
630.859	42.45
631.05	42.44
631.241	42.34
631.432	42.26
631.623	42.1
631.813	42.16
632.004	42.21
632.195	42.34
632.385	42.38
632.576	42.12
632.767	41.93
632.957	41.79
633.148	41.71
633.339	41.45
633.529	41.2
633.72	41.16
633.91	41.12
634.101	41.03
634.292	41.02
634.482	40.96
634.673	40.88
634.863	40.86
635.054	40.85
635.244	40.9
635.435	41.09
635.625	40.87
635.815	40.88
636.006	40.91
636.196	40.84
636.387	40.68
636.577	40.57
636.767	40.57
636.958	40.47
637.148	40.32
637.338	40.37
637.529	40.14
637.719	40.37
637.909	40.38
638.099	40.24
638.29	40.3
638.48	40.37
638.67	40.33
638.86	40.26
639.05	40.38
639.241	40.45
639.431	40.32
639.621	40.4
639.811	40.31
640.001	40.38
640.191	40.47
640.381	40.45
640.571	40.55
640.761	40.71
640.951	41.02
641.141	41.02
641.331	41.08
641.521	40.91
641.711	40.95
641.901	41.13
642.091	41.07
642.281	40.84
642.471	40.91
642.661	40.65
642.851	40.64
643.041	40.72
643.231	40.77
643.42	40.81
643.61	41.01
643.8	40.87
643.99	40.39
644.18	40.28
644.369	40.48
644.559	40.57
644.749	40.65
644.939	40.72
645.128	40.52
645.318	40.4
645.508	40.35
645.697	40.3
645.887	40.48
646.076	40.86
646.266	41.09
646.456	41.08
646.645	41.05
646.835	41.11
647.024	41.01
647.214	41
647.403	41.18
647.593	41.09
647.782	41.26
647.972	41.48
648.161	41.55
648.351	41.6
648.54	41.6
648.73	41.56
648.919	41.47
649.108	41.56
649.298	41.84
649.487	41.84
649.677	41.95
649.866	42.06
650.055	42.07
650.244	42.24
650.434	42.14
650.623	42.16
650.812	42.26
651.002	42.43
651.191	42.13
651.38	42.11
651.569	42.12
651.758	42.12
651.947	41.97
652.137	41.9
652.326	41.74
652.515	41.77
652.704	41.89
652.893	41.68
653.082	41.54
653.271	41.78
653.46	41.64
653.649	41.28
653.838	41.18
654.027	41.03
654.216	40.96
654.405	40.97
654.594	41.07
654.783	40.97
654.972	41.04
655.161	40.97
655.35	41.09
655.539	41.14
655.728	41.65
655.916	41.62
656.105	41.76
656.294	41.71
656.483	41.83
656.672	41.6
656.86	41.61
657.049	41.67
657.238	41.75
657.427	41.58
657.615	41.34
657.804	41.23
657.993	41.34
658.181	41.46
658.37	41.37
658.559	41.05
658.747	41.06
658.936	41.11
659.125	41.13
659.313	41.35
659.502	41.38
659.69	41.63
659.879	41.48
660.067	41.55
660.256	41.57
660.444	41.73
660.633	42.14
660.821	42.27
661.01	42.31
661.198	42.32
661.387	42.16
661.575	42.43
661.763	42.34
661.952	42.55
662.14	42.66
662.328	42.4
662.517	42.47
662.705	42.38
662.893	42.28
663.082	42.18
663.27	42.28
663.458	42.22
663.646	41.96
663.834	42.03
664.023	42.18
664.211	42.1
664.399	42.24
664.587	42
664.775	41.88
664.963	41.87
665.152	41.98
665.34	41.8
665.528	41.86
665.716	41.81
665.904	41.73
666.092	41.49
666.28	41.1
666.468	40.93
666.656	41.05
666.844	41.04
667.032	41.05
667.22	41.09
667.408	41.12
667.596	41.05
667.784	40.93
667.971	40.98
668.159	41.01
668.347	41.24
668.535	41.19
668.723	41.32
668.911	41.44
669.098	41.79
669.286	41.61
669.474	41.64
669.662	41.52
669.849	41.47
670.037	41.3
670.225	41.18
670.413	41.1
670.6	41.37
670.788	41.11
670.976	41.13
671.163	41.12
671.351	41.28
671.538	41.38
671.726	41.6
671.913	41.9
672.101	42.12
672.289	42.24
672.476	42.26
672.664	42.14
672.851	42.39
673.039	42.05
673.226	41.86
673.413	41.74
673.601	41.56
673.788	41.58
673.976	41.32
674.163	41.54
674.35	41.7
674.538	41.96
674.725	42.05
674.912	41.73
675.1	42.08
675.287	42.08
675.474	42.24
675.662	42.25
675.849	42.2
676.036	42.5
676.223	42.41
676.411	42.31
676.598	42.14
676.785	42.13
676.972	42.2
677.159	41.95
677.346	41.67
677.533	41.6
677.721	41.65
677.908	41.55
678.095	41.38
678.282	41.31
678.469	41.45
678.656	41.44
678.843	41.31
679.03	41.6
679.217	41.72
679.404	42.06
679.591	42
679.778	42.18
679.964	42.34
680.151	42.51
680.338	42.33
680.525	42.19
680.712	42.36
680.899	42.53
681.086	42.38
681.272	42.43
681.459	42.22
681.646	42.48
681.833	42.32
682.02	42.24
682.206	42.15
682.393	42.61
682.58	42.57
682.766	42.77
682.953	42.54
683.14	42.65
683.326	42.5
683.513	42.42
683.7	42.12
683.886	42.25
684.073	42.37
684.259	42.39
684.446	42.32
684.632	42.63
684.819	42.34
685.005	42.56
685.192	42.55
685.378	42.55
685.565	42.77
685.751	43.08
685.938	42.81
686.124	42.75
686.31	42.83
686.497	42.54
686.683	42.26
686.87	42.21
687.056	41.93
687.242	41.71
687.429	41.85
687.615	41.97
687.801	41.67
687.987	41.67
688.174	41.75
688.36	41.73
688.546	41.92
688.732	41.87
688.918	42.11
689.105	42.17
689.291	42.17
689.477	42.16
689.663	42.19
689.849	42.29
690.035	42.83
690.221	42.7
690.407	43.06
690.593	43.01
690.779	43.19
690.965	42.91
691.151	43.14
691.337	43.2
691.523	43.19
691.709	42.97
691.895	42.88
692.081	42.56
692.267	42.43
692.453	42.32
692.639	41.9
692.825	41.71
693.011	41.93
693.196	41.75
693.382	41.81
693.568	42.03
693.754	42.03
693.94	42.15
694.125	42.21
694.311	42.42
694.497	42.22
694.682	42.34
694.868	42.45
695.054	42.28
695.239	42.53
695.425	42.63
695.611	42.56
695.796	42.63
695.982	42.49
696.168	42.13
696.353	42.07
696.539	42.03
696.724	42.41
696.91	42.27
697.095	42.06
697.281	41.84
697.466	41.51
697.652	41.35
697.837	41.25
698.023	41.34
698.208	41.62
698.393	41.7
698.579	41.66
698.764	41.38
698.949	41.55
699.135	41.68
699.32	41.89
699.505	42.26
699.691	42.35
699.876	42.55
700.061	42.63
700.246	42.53
700.432	42.63
700.617	42.56
700.802	42.79
700.987	42.62
701.172	43.08
701.358	43.12
701.543	43.08
701.728	43.39
701.913	43.16
702.098	43.3
702.283	43.36
702.468	43.42
702.653	43.5
702.838	43.75
703.023	43.97
703.208	43.22
703.393	42.89
703.578	43.04
703.763	42.56
703.948	42.82
704.133	42.49
704.318	42.59
704.503	42.08
704.688	42.56
704.873	42.58
705.057	42.71
705.242	43.23
705.427	43.69
705.612	43.76
705.797	44.2
705.981	44.44
706.166	44.97
706.351	45.17
706.536	45.73
706.72	45.54
706.905	45.12
707.09	44.71
707.274	44.69
707.459	44.74
707.644	44.8
707.828	44.81
708.013	44.8
708.197	44.58
708.382	44.53
708.567	44.31
708.751	43.99
708.936	44.03
709.12	44.81
709.305	44.89
709.489	44.48
709.673	44.43
709.858	44.32
710.042	44.19
710.227	44.3
710.411	44.01
710.596	44.1
710.78	44.55
710.964	44.75
711.149	44.4
711.333	44.37
711.517	44.55
711.702	44.34
711.886	44.06
712.07	43.79
712.254	43.32
712.438	43.62
712.623	43.57
712.807	43.2
712.991	43.2
713.175	43.16
713.359	42.78
713.544	42.59
713.728	42.58
713.912	42.52
714.096	42.76
714.28	43.19
714.464	42.99
714.648	42.94
714.832	42.83
715.016	42.35
715.2	42.37
715.384	42.77
715.568	43.01
715.752	42.71
715.936	42.61
716.12	42.53
716.304	42.3
716.488	42.2
716.671	41.95
716.855	42.17
717.039	42.54
717.223	42.36
717.407	41.86
717.59	42.07
717.774	42.23
717.958	42.16
718.142	41.74
718.325	41.86
718.509	41.66
718.693	41.68
718.877	41.53
719.06	41.24
719.244	41.21
719.428	41.33
719.611	40.74
719.795	40.68
719.978	41.05
720.162	41.2
720.345	40.81
720.529	41
720.713	40.78
720.896	40.71
721.08	41.21
721.263	40.9
721.446	40.82
721.63	41.17
721.813	41.01
721.997	41.19
722.18	41.24
722.364	41.46
722.547	41.77
722.73	42.07
722.914	42.19
723.097	41.59
723.28	41.8
723.464	41.82
723.647	41.77
723.83	41.88
724.013	41.89
724.197	41.68
724.38	41.13
724.563	40.72
724.746	40.65
724.929	40.63
725.112	40.99
725.296	40.68
725.479	40.88
725.662	40.7
725.845	40.93
726.028	40.71
726.211	40.96
726.394	41.52
726.577	41.54
726.76	41.73
726.943	41.56
727.126	41.22
727.309	41.38
727.492	41.4
727.675	40.96
727.858	40.7
728.041	41
728.224	40.91
728.407	40.45
728.589	40.38
728.772	40.17
728.955	40.19
729.138	40.39
729.321	40.58
729.503	40.56
729.686	40.94
729.869	41.31
730.052	41.32
730.234	41.47
730.417	41.83
730.6	41.78
730.782	42.06
730.965	42.01
731.148	41.89
731.33	41.92
731.513	42.12
731.695	42.19
731.878	41.9
732.061	41.7
732.243	41.4
732.426	41.54
732.608	41.2
732.791	40.97
732.973	40.77
733.156	40.67
733.338	40.32
733.52	40.34
733.703	40.43
733.885	40.68
734.068	40.55
734.25	40.61
734.432	40.24
734.615	40.53
734.797	40.42
734.979	40.29
735.162	40.74
735.344	40.91
735.526	40.76
735.708	40.78
735.891	40.43
736.073	40.4
736.255	40.13
736.437	40.5
736.619	40.81
736.802	41.02
736.984	41.35
737.166	41.09
737.348	41.33
737.53	41.26
737.712	41.17
737.894	41.43
738.076	41.15
738.258	41.81
738.44	41.62
738.622	41.77
738.804	41.54
738.986	41.45
739.168	41.59
739.35	41.17
739.532	41.15
739.714	40.92
739.896	40.56
740.078	40.74
740.259	40.33
740.441	40.41
740.623	39.92
740.805	40.28
740.987	40.09
741.168	39.73
741.35	39.49
741.532	39.33
741.714	39.19
741.895	39.07
742.077	39.97
742.259	40.19
742.44	40.65
742.622	40.78
742.804	40.47
742.985	40.68
743.167	40.65
743.348	41.13
743.53	41.34
743.711	41.72
743.893	41.69
744.075	40.55
744.256	40.35
744.438	39.3
744.619	39.63
744.8	39.48
744.982	39.64
745.163	40.11
745.345	39.55
745.526	39.61
745.707	39.24
745.889	39.3
746.07	39.27
746.252	39.15
746.433	40.15
746.614	39.54
746.795	40.15
746.977	39.97
747.158	40.01
747.339	40.79
747.52	40.36
747.702	40.82
747.883	40.97
748.064	41.43
748.245	41.69
748.426	41.32
748.607	42.03
748.788	41.49
748.97	41.7
749.151	41.37
749.332	41.47
749.513	41.62
749.694	41.24
749.875	41.29
750.056	40.96
750.237	41.88
750.418	41.7
750.599	40.87
750.78	41.4
750.96	41.47
751.141	41.05
751.322	40.6
751.503	40.72
751.684	40.43
751.865	40.81
752.046	40.83
752.226	40.17
752.407	40.58
752.588	40.28
752.769	39.65
752.949	39.31
753.13	40.2
753.311	40.28
753.492	39.57
753.672	40.18
753.853	39.33
754.034	39.21
754.214	38.52
754.395	38.39
754.575	39.05
754.756	39.25
754.937	39.41
755.117	38.75
755.298	39.48
755.478	39.75
755.659	39.66
755.839	40.91
756.02	40.54
756.2	40.79
756.381	40.88
756.561	40.72
756.741	40.93
756.922	40.81
757.102	41.64
757.283	41.28
757.463	41.43
757.643	41.84
757.823	41.29
758.004	42.06
758.184	42.07
758.364	41.75
758.545	42.89
758.725	42.82
758.905	42.61
759.085	42.08
759.265	41.12
759.446	40.94
759.626	40.02
759.806	39.33
759.986	38.98
760.166	38.7
760.346	38.67
760.526	37.77
760.706	37.74
760.886	38.01
761.066	37.45
761.246	38.26
761.426	38.56
761.606	38.64
761.786	39.57
761.966	39.72
762.146	39.72
762.326	39.44
762.506	39.51
762.686	38.94
762.866	39.08
763.046	39.34
763.225	39.1
763.405	39.55
763.585	39.75
763.765	39.43
763.945	39.24
764.124	39.57
764.304	39.87
764.484	39.81
764.664	40.39
764.843	40.28
765.023	40.3
765.203	40.4
765.382	39.99
765.562	39.93
765.741	39.87
765.921	39.98
766.101	39.94
766.28	39.35
766.46	39.08
766.639	39.15
766.819	39.33
766.998	39.64
767.178	39.26
767.357	38.92
767.537	38.56
767.716	38.99
767.896	39.56
768.075	39.63
768.254	40.44
768.434	40.99
768.613	40.99
768.792	40.52
768.972	40.58
769.151	41.11
769.33	41.56
769.51	42.27
769.689	41.86
769.868	40.75
770.047	40.35
770.226	40.28
770.406	40.04
770.585	40.18
770.764	40.89
770.943	40.16
771.122	40.2
771.301	39.42
771.48	39.13
771.66	39.63
771.839	40.28
772.018	39.54
772.197	39.57
772.376	39.51
772.555	39.08
772.734	39.45
772.913	39.66
773.092	39.82
773.271	40.34
773.449	40.28
773.628	39.78
773.807	39.85
773.986	40.49
774.165	39.97
774.344	40.09
774.523	39.86
774.701	39.78
774.88	40.01
775.059	39.62
775.238	40.06
775.417	40.12
775.595	39.82
775.774	39.55
775.953	39.77
776.131	40.35
776.31	40.12
776.489	39.82
776.667	39.21
776.846	39.89
777.025	40.05
777.203	40.1
777.382	40.48
777.56	40.28
777.739	40.38
777.917	40.4
778.096	39.84
778.274	39.85
778.453	40.05
778.631	39.8
778.81	38.89
778.988	38.64
779.166	37.99
779.345	37.89
779.523	37.73
779.702	37.18
779.88	36.59
780.058	36.78
780.237	36.84
780.415	37.29
780.593	36.8
780.771	36.94
780.95	37.93
781.128	37.61
781.306	37.59
781.484	37.43
781.662	37.73
781.841	37.7
782.019	38.08
782.197	37.99
782.375	37.56
782.553	38.42
782.731	38.79
782.909	37.74
783.087	37.82
783.265	37.18
783.443	38.14
783.621	38.43
783.799	38.9
783.977	38.09
784.155	37.4
784.333	36.99
784.511	37.54
784.689	36.3
784.867	36.53
785.045	37.76
785.223	37.27
785.4	36.83
785.578	36.44
785.756	36.8
785.934	37.17
786.112	37.68
786.289	39.25
786.467	37.99
786.645	39.49
786.823	39.77
787	38.92
787.178	40.54
787.356	40.69
787.533	41.18
787.711	40.88
787.889	41.19
788.066	41.16
788.244	40.23
788.421	40.6
788.599	39.86
788.776	38.71
788.954	38.7
789.131	37.72
789.309	37.95
789.486	38.07
789.664	38.66
789.841	38.45
790.019	39.25
790.196	39.63
790.373	39.78
790.551	39.63
790.728	40.24
790.906	40.81
791.083	40.51
791.26	40.76
791.437	40.13
791.615	38.49
791.792	38.44
791.969	37.96
792.146	37.96
792.324	38.74
792.501	38.72
792.678	38.89
792.855	37.79
793.032	38.15
793.209	38.11
793.387	38.19
793.564	39.29
793.741	39
793.918	38.38
794.095	37.45
794.272	36.07
794.449	36.59
794.626	36.31
794.803	37.16
794.98	37.63
795.157	35.84
795.334	36.3
795.511	36.11
795.688	36.66
795.864	36.98
796.041	36.96
796.218	37.51
796.395	37.38
796.572	38.04
796.749	37.68
796.925	36.44
797.102	36.28
797.279	36.28
797.456	36.35
797.632	35.47
797.809	35.97
797.986	36.26
798.162	36.37
798.339	36.92
798.516	36.55
798.692	36.06
798.869	36.94
799.046	38.89
799.222	38.29
799.399	38.82
799.575	38.48
799.752	38.91
799.928	39.41
800.105	39.35
800.281	37.88
800.458	38.57
800.634	38.33
800.811	37.49
800.987	36.87
801.163	37.14
801.34	37.48
801.516	39.11
801.692	37.47
801.869	36.33
802.045	35.94
802.221	37.26
802.398	35.73
802.574	36.09
802.75	36.7
802.926	36.4
803.103	37.03
803.279	35.77
803.455	34.93
803.631	35.83
803.807	36.58
803.983	36.44
804.16	36.92
804.336	37.93
804.512	38.19
804.688	39.74
804.864	40.05
805.04	40.4
805.216	41.38
805.392	40.29
805.568	40.37
805.744	40.21
805.92	40.66
806.096	38.2
806.272	36.68
806.448	37.25
806.623	35.73
806.799	35.86
806.975	35.18
807.151	33.94
807.327	35.56
807.503	35.49
807.678	36.65
807.854	36.33
808.03	37.58
808.206	38
808.381	37.71
808.557	37.67
808.733	37.59
808.908	36.34
809.084	37.59
809.26	37.03
809.435	35.76
809.611	35.05
809.787	35.27
809.962	36.01
810.138	36.89
810.313	36.48
810.489	35.35
810.664	35.2
810.84	35.49
811.015	35.14
811.191	35.89
811.366	36.96
811.542	36.09
811.717	35.88
811.892	35.92
812.068	35.77
812.243	36.87
812.419	37.58
812.594	37.6
812.769	37.99
812.944	38.81
813.12	38.22
813.295	37.99
813.47	38.16
813.645	38.35
813.821	36.61
813.996	35.83
814.171	35.11
814.346	35.9
814.521	34.99
814.697	35.93
814.872	32.87
815.047	32.66
815.222	32.24
815.397	31.05
815.572	30.65
815.747	31.1
815.922	31.4
816.097	30.71
816.272	29.99
816.447	32.51
816.622	32.73
816.797	34.55
816.972	34.45
817.147	34.85
817.322	37
817.496	37.34
817.671	37.59
817.846	37.38
818.021	37.48
818.196	37.16
818.371	35.53
818.545	34.85
818.72	36.25
818.895	36.09
819.069	35.97
819.244	35.49
819.419	35.84
819.594	36.14
819.768	37.3
819.943	37.41
820.117	37.57
820.292	37.98
820.467	37.91
820.641	36.97
820.816	37.44
820.99	37.63
821.165	37.45
821.339	36.92
821.514	36.67
821.688	36.27
821.863	36.01
822.037	36.16
822.212	35.87
822.386	35.76
822.56	35.83
822.735	35.93
822.909	35.81
823.084	35.93
823.258	36.05
823.432	36.19
823.606	36.02
823.781	36.3
823.955	36.04
824.129	36.37
824.303	36.64
824.478	36.62
824.652	36.25
824.826	36.11
825	36.13
825.174	36.04
825.348	35.74
825.523	36.2
825.697	35.85
825.871	35.63
826.045	35.85
826.219	35.53
826.393	35.58
826.567	35.93
826.741	35.91
826.915	35.38
827.089	35.72
827.263	35.58
827.437	35.98
827.611	36.12
827.784	36.75
827.958	36.39
828.132	36.32
828.306	36.62
828.48	35.91
828.654	36.34
828.827	36.85
829.001	36.3
829.175	36.58
829.349	35.73
829.522	35.98
829.696	36.36
829.87	36.74
830.044	36.79
830.217	36.86
830.391	37.35
830.565	37
830.738	37.17
830.912	36.59
831.085	37.13
831.259	37.16
831.432	37.34
831.606	35.83
831.779	35.51
831.953	35.81
832.126	35.17
832.3	34.99
832.473	34.33
832.647	33.92
832.82	34.68
832.994	34.15
833.167	34.81
833.34	34.42
833.514	34.65
833.687	34.57
833.86	34.48
834.034	34.14
834.207	34.48
834.38	34.89
834.553	34.94
834.727	34.79
834.9	35.11
835.073	35.09
835.246	35.6
835.419	36.31
835.593	36.15
835.766	36
835.939	35.89
836.112	35.85
836.285	36.11
836.458	36.21
836.631	37.27
836.804	37.83
836.977	36.83
837.15	35.52
837.323	33.69
837.496	33.85
837.669	34.43
837.842	35.27
838.015	37.1
838.188	36.4
838.361	35.33
838.533	34.05
838.706	33.26
838.879	34.18
839.052	35.56
839.225	35.97
839.398	35.8
839.57	36.44
839.743	36.2
839.916	34.04
840.088	34.2
840.261	36.01
840.434	37.33
840.607	38.88
840.779	38.13
840.952	37.73
841.124	36.95
841.297	37.74
841.47	35.57
841.642	37.46
841.815	38.22
841.987	38.26
842.16	37.67
842.332	36.83
842.505	34.97
842.677	35.27
842.85	34.94
843.022	36.56
843.194	36.16
843.367	38.89
843.539	37.65
843.712	37.79
843.884	38.98
844.056	38.91
844.229	38.61
844.401	39
844.573	43.23
844.745	44.25
844.918	43.46
845.09	41.78
845.262	39.92
845.434	37.52
845.606	37.46
845.779	38.65
845.951	38.8
846.123	38.28
846.295	38.75
846.467	35.2
846.639	33.76
846.811	32.82
846.983	34
847.155	36.26
847.327	37.58
847.499	42.05
847.671	41.5
847.843	42.47
848.015	46.12
848.187	45.94
848.359	46.73
848.531	48.22
848.703	49.86
848.875	50.39
849.047	48.68
849.218	48.57
849.39	44.65
849.562	41.36
849.734	39.96
849.905	36.06
850.077	33.83
850.249	29.3
850.421	25.61
850.592	29.44
850.764	25.03
850.936	25.3
851.107	25.05
851.279	23.7
851.451	25.63
851.622	24.46
851.794	25.75
851.965	28.68
852.137	32.07
852.308	35.48
852.48	35.42
852.651	38.7
852.823	39.85
852.994	40.98
853.166	40.1
853.337	37.91
853.509	36.34
853.68	36.81
853.851	32.33
854.023	30.23
854.194	28.89
854.365	30.19
854.537	31.53
854.708	31.99
854.879	33.99
855.05	37.27
855.222	35.04
855.393	35.65
855.564	36.55
855.735	40.27
855.906	40.04
856.078	37.92
856.249	31.82
856.42	28.85
856.591	27.19
856.762	23.23
856.933	19.48
857.104	23.61
857.275	25.4
857.446	24.65
857.617	24.86
857.788	31.5
857.959	30.86
858.13	34.33
858.301	37.87
858.472	39.97
858.643	44.27
858.814	45.11
858.985	47.96
859.155	46.47
859.326	45.29
859.497	44.74
859.668	39.51
859.839	42.07
860.009	40.8
860.18	37.37
860.351	38.02
860.522	35.97
860.692	34.88
860.863	33.91
861.034	33.91
861.204	27.08
861.375	26.09
861.546	27.85
861.716	27.71
861.887	30.19
862.057	32.3
862.228	32.4
862.398	30.06
862.569	26.56
862.739	20.18
862.91	20
863.08	26.95
863.251	28.12
863.421	23.84
863.592	26.35
863.762	25.3
863.932	26.37
864.103	25.7
864.273	28.96
864.443	32.54
864.614	35.45
864.784	34.71
864.954	35.43
865.125	34.12
865.295	38.11
865.465	33.27
865.635	31.29
865.805	30.78
865.976	30.04
866.146	29.95
866.316	33.06
866.486	32.76
866.656	35.72
866.826	35.79
866.996	31.75
867.166	27.91
867.336	30.76
867.506	36.57
867.676	35.82
867.846	35.51
868.016	33.39
868.186	33.33
868.356	33.46
868.526	36.04
868.696	32.55
868.866	36.86
869.036	38.3
869.206	38.1
869.376	39.05
869.545	39.91
869.715	36.35
869.885	37.88
870.055	35.2
870.224	35.29
870.394	31.87
870.564	35.73
870.734	34.89
870.903	35.61
871.073	36.42
871.243	29.99
871.412	30.26
871.582	33.85
871.751	31.7
871.921	33.19
872.091	34.9
872.26	37.09
872.43	33.35
872.599	34.08
872.769	33.94
872.938	34.95
873.108	37.98
873.277	34.58
873.446	33.12
873.616	31.53
873.785	26.88
873.955	27.03
874.124	22.57
874.293	23.69
874.463	23.27
874.632	20.02
874.801	19.56
874.971	22.85
875.14	27.46
875.309	28.06
875.478	33.04
875.647	37.59
875.817	35.53
875.986	38.01
876.155	38.72
876.324	37.22
876.493	42.16
876.662	40.9
876.831	37.54
877	38.15
877.17	40.58
877.339	35.52
877.508	32.93
877.677	33.59
877.846	32.99
878.015	35.83
878.184	36.75
878.352	36.11
878.521	38.99
878.69	37.09
878.859	37.22
879.028	35.64
879.197	36.47
879.366	38.65
879.534	38.29
879.703	37.83
879.872	34.87
880.041	34.58
880.21	35.63
880.378	33.94
880.547	34.04
880.716	32.17
880.884	32.47
881.053	32.84
881.222	33.13
881.39	33.47
881.559	32.87
881.727	32.95
881.896	32.98
882.065	32.45
882.233	32.34
882.402	32.83
882.57	32.82
882.739	33.12
882.907	33.27
883.076	32.34
883.244	33.07
883.412	33.82
883.581	33.98
883.749	34.22
883.918	33.86
884.086	33.64
884.254	33.35
884.423	34.13
884.591	33.96
884.759	33.91
884.927	33.61
885.096	32.5
885.264	32.77
885.432	33.37
885.6	32.92
885.769	35.02
885.937	36.61
886.105	36.58
886.273	35.91
886.441	35.49
886.609	36.37
886.777	39.77
886.945	38.25
887.113	35.9
887.281	34.63
887.449	33.95
887.617	32
887.785	30.69
887.953	32.01
888.121	30.69
888.289	28
888.457	27.49
888.625	27.51
888.793	26.42
888.961	29.13
889.129	28.04
889.296	31.7
889.464	30.88
889.632	31.76
889.8	30.12
889.967	33.3
890.135	37.36
