Data from JASIL_3163_Reflection_1.txt Node
Date: Thu Nov 12 21:58:40 EST 2015
User: Geneva
Spectrometer: USB4E03002
Autoset integration time: false
Trigger mode: 4
Integration Time (sec): 1.000000E-1
Scans to average: 10
Electric dark correction enabled: true
Nonlinearity correction enabled: false
Boxcar width: 5
Stray light correction enabled: false
XAxis mode: Wavelengths
Stop averaging: false
Number of Pixels in Spectrum: 3648
>>>>>Begin Spectral Data<<<<<
177.575	-22.64
177.794	38.82
178.014	25.03
178.233	80.21
178.452	56.49
178.672	90.98
178.891	109.22
179.11	88.41
179.33	341.7
179.549	200.81
179.768	-1261.61
179.987	-309.12
180.207	-222.94
180.426	-660.13
180.645	707.46
180.864	554.43
181.084	416.22
181.303	1840.74
181.522	521.48
181.741	231.1
181.96	440.1
182.179	347.25
182.398	925.43
182.618	791.01
182.837	-259.04
183.056	-165.87
183.275	-47.4
183.494	-39.75
183.713	-49.39
183.932	2.06
184.151	-7.15
184.37	16.75
184.589	6.86
184.808	12.25
185.027	18.03
185.246	30.62
185.465	37.44
185.684	28.24
185.903	19.78
186.122	5.68
186.341	-2.27
186.56	8.57
186.779	-204.41
186.998	-141.74
187.216	-60.9
187.435	-176.24
187.654	-701.17
187.873	-615.01
188.092	468.8
188.311	700.91
188.53	1394.3
188.748	-2401.74
188.967	-83.17
189.186	-36.62
189.405	-126.3
189.623	-107.85
189.842	-40.65
190.061	10.55
190.28	14.93
190.498	7.79
190.717	-16.5
190.936	-53.32
191.154	-41.77
191.373	-272.65
191.592	-122.64
191.81	-71.31
192.029	-477.95
192.248	-264.14
192.466	-203.94
192.685	-274.76
192.904	-338.75
193.122	-343.08
193.341	-223.76
193.559	-459.97
193.778	-150.44
193.996	-251.62
194.215	-104.47
194.433	-131.79
194.652	-339.88
194.87	-276.53
195.089	-420.08
195.307	-394.22
195.526	-874.19
195.744	5184.85
195.963	510.47
196.181	225.23
196.399	184.93
196.618	108.9
196.836	123.94
197.055	147.91
197.273	135.32
197.491	132.32
197.71	147.36
197.928	151.13
198.146	263.16
198.365	732.17
198.583	1029.53
198.801	1240.3
199.019	-624.71
199.238	-200.26
199.456	-688.55
199.674	-402.48
199.892	-787.32
200.111	-483.98
200.329	-478.6
200.547	-304.32
200.765	-587.59
200.983	-241.42
201.202	-146.29
201.42	-186.31
201.638	-80.5
201.856	-84.36
202.074	-94.71
202.292	-16.16
202.51	-32.99
202.728	-41.52
202.946	-12.73
203.165	-21.96
203.383	-36.91
203.601	-43.56
203.819	-64.17
204.037	-78.76
204.255	-54.69
204.473	-77.39
204.691	-101.23
204.909	-81.3
205.127	-52.17
205.345	-96.75
205.562	-94.35
205.78	-79.49
205.998	-92.49
206.216	-132.49
206.434	-233.39
206.652	-331.17
206.87	-213.33
207.088	-6758.59
207.306	-728.59
207.523	616.46
207.741	345.55
207.959	-985.23
208.177	-173.54
208.395	-163.7
208.612	-53.31
208.83	5.15
209.048	-34.85
209.266	-43.86
209.483	13.76
209.701	4.9
209.919	-26.03
210.136	-34.31
210.354	-23.2
210.572	-33.52
210.79	-37.73
211.007	-17.9
211.225	-54.72
211.442	-19.35
211.66	-42.31
211.878	-57.05
212.095	226.1
212.313	175.73
212.53	184.65
212.748	156.61
212.966	176.13
213.183	164.51
213.401	157.16
213.618	159.71
213.836	169.83
214.053	164.61
214.271	163.41
214.488	-5220.78
214.705	-1292.29
214.923	-1141.87
215.14	-601.13
215.358	-383.5
215.575	-179.97
215.793	-217.1
216.01	821.03
216.227	-55363.64
216.445	-172.23
216.662	-251.68
216.879	-266.79
217.097	-106.25
217.314	-59.93
217.531	-83.36
217.749	-68.47
217.966	-57.54
218.183	-70.44
218.4	-48.29
218.618	-27.01
218.835	-69.16
219.052	-52.08
219.269	-36.39
219.487	-45.19
219.704	-69.56
219.921	-121.67
220.138	-183.72
220.355	-281.54
220.572	-140.6
220.79	-67.18
221.007	-75.82
221.224	-98.82
221.441	-89.13
221.658	-71.78
221.875	-49.8
222.092	-54.51
222.309	-13.55
222.526	-25.84
222.743	-35.09
222.96	-40.69
223.177	-97.42
223.394	-131.57
223.611	-63.77
223.828	-94.53
224.045	-95.06
224.262	-120.01
224.479	-112.84
224.696	-87.82
224.913	-76.36
225.13	-69.24
225.347	-42.14
225.564	-22.9
225.781	-14.49
225.997	0.59
226.214	10.4
226.431	8.04
226.648	7.51
226.865	7.02
227.082	-12.24
227.298	9.52
227.515	10.73
227.732	6.17
227.949	3.19
228.165	5.3
228.382	0.97
228.599	-6.13
228.816	-8.66
229.032	-6.99
229.249	-6.87
229.466	2.31
229.682	-18.55
229.899	-16.8
230.116	-13.56
230.332	-9.88
230.549	-3.77
230.765	-3.13
230.982	5.44
231.199	19.68
231.415	3.02
231.632	9.56
231.848	7.62
232.065	22.63
232.281	27.65
232.498	24.29
232.714	13.88
232.931	11.5
233.147	1.33
233.364	10.2
233.58	-13.99
233.797	-0.53
234.013	-2.84
234.23	-8.08
234.446	-19.33
234.662	-45.9
234.879	-44.57
235.095	-37.4
235.312	-54.98
235.528	-32.89
235.744	-36.62
235.961	-49.15
236.177	-70.04
236.393	-73.04
236.61	-47.33
236.826	-40.41
237.042	-26.5
237.258	-41.07
237.475	-55.48
237.691	-30.89
237.907	-31.09
238.123	-28.35
238.339	-13.4
238.556	-5.07
238.772	-17.12
238.988	-14.83
239.204	-12.96
239.42	-22.84
239.636	-9.64
239.853	7.85
240.069	-2.37
240.285	-5.93
240.501	-5.35
240.717	-0.59
240.933	1.12
241.149	10.14
241.365	2.23
241.581	2.7
241.797	9.69
242.013	10.42
242.229	3.79
242.445	4.39
242.661	5.44
242.877	0.18
243.093	-3.87
243.309	-1.78
243.525	-13.28
243.741	-6.99
243.957	-9.67
244.173	-12.64
244.388	-15.83
244.604	-12.23
244.82	-14.29
245.036	-15.05
245.252	-6.64
245.468	-3.49
245.683	-5.95
245.899	-2.08
246.115	-1.3
246.331	1.97
246.547	-1.9
246.762	1.03
246.978	0.25
247.194	-0.53
247.409	1.44
247.625	-0.16
247.841	-1.75
248.057	-0.45
248.272	0.41
248.488	1.99
248.703	3.11
248.919	8.1
249.135	6.6
249.35	3.43
249.566	10.9
249.782	9.01
249.997	7.96
250.213	10.83
250.428	9.97
250.644	2.26
250.859	2.86
251.075	-9.93
251.29	-7.53
251.506	-7.99
251.721	-8.71
251.937	-10.4
252.152	-12.48
252.368	-16.8
252.583	-24.41
252.798	-21.71
253.014	-19.16
253.229	-23.76
253.445	-19.56
253.66	-28.87
253.875	-28.14
254.091	-34.28
254.306	-27.54
254.521	-32.19
254.737	-20.03
254.952	-22.67
255.167	-26.08
255.383	-20.99
255.598	-24.18
255.813	-14.63
256.028	-15.92
256.244	-14.82
256.459	-5.68
256.674	-11.16
256.889	-6.33
257.104	-2.21
257.32	1.27
257.535	2.31
257.75	-1.25
257.965	2.37
258.18	-2.27
258.395	-2.63
258.61	-1.02
258.826	2.39
259.041	1.23
259.256	0.5
259.471	-1.6
259.686	-1.7
259.901	-0.88
260.116	-0.07
260.331	-0.69
260.546	2.65
260.761	6.31
260.976	7.67
261.191	4.43
261.406	8.01
261.621	6.1
261.836	6.68
262.05	9.99
262.265	8.52
262.48	16.21
262.695	16.83
262.91	13.82
263.125	14.97
263.34	10.21
263.555	11.55
263.769	7.2
263.984	9.71
264.199	7.1
264.414	5.96
264.629	7.34
264.843	0.4
265.058	-0.78
265.273	0.61
265.488	-6.95
265.702	-4.7
265.917	-8.45
266.132	-12.3
266.346	-10.43
266.561	-10.32
266.776	-11
266.99	-13.06
267.205	-13.08
267.42	-15.94
267.634	-15.56
267.849	-14.62
268.063	-16.44
268.278	-17.67
268.492	-15.17
268.707	-15.34
268.922	-13.46
269.136	-12.05
269.351	-9.75
269.565	-9.53
269.78	-6.75
269.994	-8.15
270.209	-5.16
270.423	-5.4
270.637	-0.62
270.852	0.24
271.066	3.22
271.281	2.02
271.495	1.64
271.709	0.88
271.924	-0.89
272.138	-1.65
272.353	-2.58
272.567	-4.07
272.781	-3.55
272.996	-5.41
273.21	-5.38
273.424	-4.63
273.638	-1.59
273.853	-3.79
274.067	-2.36
274.281	-1.29
274.495	1.04
274.71	7.34
274.924	6.86
275.138	9.01
275.352	6.81
275.566	6.15
275.781	2.26
275.995	2.61
276.209	-1.47
276.423	-6.38
276.637	-6.02
276.851	-8.45
277.065	-15.18
277.279	-16.55
277.493	-16.52
277.707	-15.18
277.921	-16.32
278.135	-19.8
278.349	-15.4
278.563	-9.47
278.777	-5.88
278.991	-5.9
279.205	-3.13
279.419	-0.35
279.633	-0.97
279.847	0.36
280.061	0.12
280.275	3.77
280.489	3.3
280.703	-3.23
280.917	1.09
281.131	2.03
281.344	-0.3
281.558	-2.46
281.772	-2.74
281.986	-1.26
282.2	-0.1
282.414	1.79
282.627	2.87
282.841	6.95
283.055	10.29
283.269	8.72
283.482	8.47
283.696	8.76
283.91	9.71
284.123	6.7
284.337	8.71
284.551	7.06
284.764	10.4
284.978	8.16
285.192	7.81
285.405	7.03
285.619	7.4
285.833	8.76
286.046	10.45
286.26	11.35
286.473	12.8
286.687	11.87
286.9	12.47
287.114	8.37
287.327	8.03
287.541	7.23
287.754	6.96
287.968	5.55
288.181	4.11
288.395	2.26
288.608	2.91
288.822	1.77
289.035	0.56
289.248	-1.83
289.462	0.18
289.675	3.53
289.889	1.41
290.102	1.24
290.315	1.36
290.529	-0.91
290.742	-0.69
290.955	-1.59
291.169	1.15
291.382	5.65
291.595	6.19
291.808	6.71
292.022	2.98
292.235	5.96
292.448	5.93
292.661	4.09
292.875	5.62
293.088	6.51
293.301	5.1
293.514	3.48
293.727	0.75
293.94	-1.02
294.153	-4.06
294.367	-5.41
294.58	-5.01
294.793	-5.77
295.006	-6.91
295.219	-6.39
295.432	-4.88
295.645	-1.95
295.858	-0.63
296.071	-0.81
296.284	1.57
296.497	4.87
296.71	4.92
296.923	5.08
297.136	5.25
297.349	5.18
297.562	5.69
297.775	3.96
297.988	2.27
298.201	0.71
298.414	0.72
298.626	2.16
298.839	-2.02
299.052	1.87
299.265	-1.33
299.478	1.33
299.691	2.52
299.903	3.82
300.116	5.63
300.329	5.67
300.542	8.09
300.755	7.55
300.967	4.91
301.18	7.55
301.393	6.23
301.605	11.26
301.818	7.61
302.031	5.97
302.243	2.89
302.456	2.56
302.669	1.31
302.881	-4.61
303.094	-6.12
303.307	-6.76
303.519	-5.91
303.732	-7.34
303.944	-10.15
304.157	-10.14
304.37	-5.14
304.582	-5.1
304.795	-6.21
305.007	-5.17
305.22	0.41
305.432	0.91
305.645	0.64
305.857	-0.3
306.069	0.46
306.282	1.19
306.494	3.84
306.707	3.16
306.919	4.76
307.132	3.62
307.344	1.31
307.556	0.48
307.769	-1.94
307.981	0.67
308.193	-1.76
308.406	-1.7
308.618	-2.22
308.83	-2.46
309.043	-4.1
309.255	-4.57
309.467	-4.78
309.679	-1.88
309.892	-1.28
310.104	1.57
310.316	0.94
310.528	4.52
310.74	4.7
310.953	3.59
311.165	2.26
311.377	4.14
311.589	3.87
311.801	4.05
312.013	1.38
312.225	3.11
312.437	4.3
312.649	2.41
312.862	2.4
313.074	2.82
313.286	5.21
313.498	6.65
313.71	4.88
313.922	6.81
314.134	7.51
314.346	7.05
314.558	5.01
314.77	3.5
314.982	7.62
315.193	2.7
315.405	-1.78
315.617	0.66
315.829	-3.3
316.041	-3.37
316.253	-3.58
316.465	-2.71
316.677	-1.28
316.888	-1.08
317.1	0.91
317.312	-2.62
317.524	-0.9
317.736	1.46
317.947	-4.5
318.159	0.84
318.371	3.35
318.583	4.64
318.794	4.16
319.006	4.94
319.218	3.67
319.43	2.69
319.641	5.66
319.853	8.57
320.064	10.09
320.276	15.2
320.488	11.29
320.699	10.34
320.911	8.32
321.123	8.33
321.334	7.03
321.546	7.83
321.757	8.51
321.969	6.62
322.18	3.77
322.392	2.93
322.603	0.61
322.815	1.67
323.026	-1.97
323.238	-2.08
323.449	0.11
323.661	0.16
323.872	-1.09
324.083	-3.72
324.295	-3.38
324.506	-2.55
324.718	-2.05
324.929	2.24
325.14	4.17
325.352	7.43
325.563	9.83
325.774	8.88
325.986	10.96
326.197	14.11
326.408	18.18
326.62	17.46
326.831	16.34
327.042	15.51
327.253	13.01
327.464	11.66
327.676	10.98
327.887	8.11
328.098	9.23
328.309	8.54
328.52	9.32
328.732	6.99
328.943	7.46
329.154	10.43
329.365	9.68
329.576	11.23
329.787	12.91
329.998	12.76
330.209	13.52
330.42	14.01
330.631	13.14
330.842	10.74
331.053	11.4
331.264	14.49
331.475	13.13
331.686	13.46
331.897	12.46
332.108	11.11
332.319	12.03
332.53	12.52
332.741	11.8
332.952	14.51
333.163	14.13
333.374	13.81
333.585	10.93
333.795	8.51
334.006	8.61
334.217	8.49
334.428	8.22
334.639	5.94
334.849	5.77
335.06	6.66
335.271	4.91
335.482	6.8
335.692	7.9
335.903	8.71
336.114	11.93
336.325	13.22
336.535	14.33
336.746	14.05
336.957	14.16
337.167	13.86
337.378	11.58
337.589	14.69
337.799	13.45
338.01	11.84
338.22	12.01
338.431	13.62
338.642	12.58
338.852	12.88
339.063	13.37
339.273	14.2
339.484	16.34
339.694	17.87
339.905	14.39
340.115	13.13
340.326	14.63
340.536	16.05
340.746	14.02
340.957	15.31
341.167	11.99
341.378	12.81
341.588	12.46
341.799	10.69
342.009	8.19
342.219	11.13
342.43	13.68
342.64	14.6
342.85	12.17
343.061	10.26
343.271	9.44
343.481	10.45
343.691	9.04
343.902	8.3
344.112	9.77
344.322	11.75
344.532	9.23
344.743	8.54
344.953	6.76
345.163	7.65
345.373	10.55
345.583	9.27
345.793	9.14
346.004	9.5
346.214	11.6
346.424	11.44
346.634	13.05
346.844	12.27
347.054	13.74
347.264	13.39
347.474	13.77
347.684	13.02
347.894	13.76
348.104	14.34
348.314	14.53
348.524	13.68
348.734	14.55
348.944	13.55
349.154	15.29
349.364	13.09
349.574	15.04
349.784	16.7
349.994	16.23
350.204	16.72
350.413	16.38
350.623	14.51
350.833	14.81
351.043	14.51
351.253	14.27
351.463	12.44
351.672	11.51
351.882	10.43
352.092	9.18
352.302	8.47
352.511	8.59
352.721	7.22
352.931	9.22
353.141	8.39
353.35	7.31
353.56	6.22
353.77	6.71
353.979	6.23
354.189	5.05
354.399	5.72
354.608	5
354.818	3.85
355.027	5.26
355.237	4.87
355.447	5.59
355.656	5.58
355.866	4.17
356.075	5.86
356.285	8.27
356.494	9.83
356.704	10.12
356.913	12.15
357.123	14.83
357.332	15.62
357.542	16.45
357.751	17.15
357.96	16.65
358.17	19.22
358.379	19.64
358.589	18.65
358.798	18.59
359.007	17.38
359.217	17.07
359.426	14.87
359.635	14.29
359.845	14.46
360.054	14.13
360.263	14.3
360.472	14.77
360.682	13.8
360.891	14.38
361.1	14.2
361.309	15.51
361.519	14.86
361.728	14.43
361.937	14.61
362.146	14.06
362.355	13.47
362.564	14.15
362.774	12.93
362.983	12.84
363.192	12.55
363.401	11.14
363.61	9.5
363.819	9.27
364.028	10.56
364.237	10.07
364.446	10.59
364.655	9.98
364.864	9.73
365.073	11.19
365.282	10.39
365.491	9.19
365.7	10.27
365.909	10.62
366.118	11.43
366.327	11.3
366.536	10.88
366.745	11.84
366.954	12.28
367.162	11.11
367.371	9.94
367.58	9.98
367.789	10.83
367.998	9.66
368.207	8.49
368.415	8.68
368.624	8.92
368.833	8.19
369.042	6.68
369.25	7.06
369.459	9.45
369.668	9.82
369.877	11.19
370.085	12.84
370.294	13.22
370.503	14.19
370.711	13.11
370.92	13.84
371.129	14.93
371.337	14.92
371.546	14.84
371.754	12.67
371.963	11.13
372.171	11.11
372.38	8.78
372.589	7.98
372.797	8.45
373.006	8.22
373.214	5.37
373.423	5.96
373.631	6.33
373.84	7
374.048	9.21
374.256	10.78
374.465	8.06
374.673	9.16
374.882	9.9
375.09	10.34
375.298	11.29
375.507	14
375.715	13.42
375.923	13.44
376.132	12.85
376.34	12.08
376.548	10.95
376.757	12.04
376.965	12.18
377.173	12.62
377.381	11.39
377.59	11.28
377.798	9.77
378.006	10.47
378.214	10.21
378.423	11.19
378.631	11.31
378.839	11.13
379.047	12.99
379.255	12.31
379.463	12.32
379.671	12.01
379.879	10.96
380.088	11.68
380.296	12.16
380.504	11.42
380.712	11.43
380.92	10.48
381.128	12.08
381.336	10.84
381.544	10.36
381.752	9.48
381.96	11.39
382.168	12.72
382.376	12.54
382.584	10.25
382.791	10.37
382.999	9.68
383.207	8.84
383.415	8.95
383.623	8.71
383.831	9.6
384.039	9.96
384.247	9.24
384.454	7.89
384.662	7.06
384.87	8.84
385.078	8.81
385.285	8.99
385.493	9.56
385.701	10.08
385.909	10.01
386.116	9.52
386.324	11.25
386.532	11.46
386.739	12.46
386.947	11.28
387.155	10.47
387.362	10.46
387.57	10.55
387.778	10.54
387.985	8.89
388.193	8.69
388.4	7.66
388.608	5.93
388.816	5.05
389.023	5.39
389.231	6.68
389.438	5.94
389.646	5.8
389.853	5.65
390.061	6.54
390.268	5.48
390.475	6.67
390.683	7.61
390.89	7.59
391.098	7.68
391.305	7.32
391.512	7.59
391.72	8.13
391.927	8.96
392.135	8.65
392.342	8.49
392.549	10.21
392.756	9.61
392.964	9.86
393.171	10.03
393.378	10.52
393.586	9.41
393.793	8.99
394	9.01
394.207	9.46
394.414	9.98
394.622	10.26
394.829	9.57
395.036	9.09
395.243	8.67
395.45	9.03
395.657	8.74
395.864	8.5
396.072	8.61
396.279	8.35
396.486	6.93
396.693	6.67
396.9	6.31
397.107	5.97
397.314	8.06
397.521	8.57
397.728	8.09
397.935	7.62
398.142	8.61
398.349	9.01
398.556	9.09
398.763	10.47
398.97	10.17
399.177	10.49
399.383	11.15
399.59	10.06
399.797	10.18
400.004	10.12
400.211	9.67
400.418	9.38
400.625	9.11
400.831	9.06
401.038	8.4
401.245	7.65
401.452	6.9
401.658	6.2
401.865	5.94
402.072	5.32
402.279	5.51
402.485	5.01
402.692	4.98
402.899	4.86
403.105	5.8
403.312	6.38
403.519	6.61
403.725	6.28
403.932	7.26
404.138	7.12
404.345	7.94
404.552	7.59
404.758	8.06
404.965	7.63
405.171	8.22
405.378	7.5
405.584	6.97
405.791	7.18
405.997	8.34
406.204	7.61
406.41	6.62
406.617	6.15
406.823	6
407.029	6.54
407.236	5.96
407.442	5.13
407.649	4.74
407.855	4.54
408.061	4.11
408.268	4.32
408.474	5
408.68	5.58
408.887	6.15
409.093	6.23
409.299	5.35
409.505	7.22
409.712	7.07
409.918	8.2
410.124	8.62
410.33	9.37
410.537	8.98
410.743	9.36
410.949	9.57
411.155	9.63
411.361	10.88
411.567	11.61
411.773	11.33
411.98	12.94
412.186	12.54
412.392	12.75
412.598	12.64
412.804	12.59
413.01	11.03
413.216	10.97
413.422	10.64
413.628	9.68
413.834	8.83
414.04	8.82
414.246	8.33
414.452	8.29
414.658	8.18
414.864	8.01
415.07	8.4
415.275	9.29
415.481	9.82
415.687	9.49
415.893	9.28
416.099	10.13
416.305	10.17
416.511	11.06
416.716	11.01
416.922	10.6
417.128	10.68
417.334	10.53
417.539	10.01
417.745	10.11
417.951	10.48
418.157	10.63
418.362	10.57
418.568	10.16
418.774	9.17
418.979	9.08
419.185	9.14
419.391	9.01
419.596	8.83
419.802	9.18
420.008	9.03
420.213	3.93
420.419	3.92
420.624	3.88
420.83	4.22
421.035	4.26
421.241	4.2
421.446	3.83
421.652	3.9
421.857	3.65
422.063	3.3
422.268	3.02
422.474	7.35
422.679	8
422.885	8.4
423.09	8.07
423.295	8.24
423.501	7.77
423.706	7.88
423.911	8.17
424.117	8.56
424.322	8.29
424.527	8.73
424.733	9.09
424.938	8.63
425.143	7.9
425.349	8.17
425.554	7.84
425.759	8.58
425.964	8.48
426.169	8.52
426.375	8.37
426.58	8.73
426.785	7.91
426.99	7.59
427.195	6.91
427.4	7.15
427.605	7.04
427.811	7.74
428.016	7.28
428.221	7.24
428.426	6.16
428.631	5.37
428.836	5.28
429.041	5.99
429.246	6.34
429.451	6.35
429.656	6.87
429.861	6.4
430.066	6.35
430.271	6.7
430.476	6.87
430.681	7.57
430.886	8.44
431.09	8.67
431.295	8.15
431.5	8.4
431.705	8.59
431.91	8.25
432.115	9.3
432.32	8.83
432.524	8.94
432.729	8.82
432.934	8.53
433.139	8.73
433.343	8.49
433.548	8.3
433.753	7.95
433.958	8.19
434.162	8.22
434.367	8.16
434.572	7.71
434.776	7.6
434.981	7.31
435.186	7.89
435.39	7.04
435.595	7.52
435.799	7.94
436.004	7.63
436.209	8.24
436.413	8.4
436.618	7.59
436.822	8.37
437.027	7.54
437.231	8.23
437.436	7.88
437.64	7.8
437.845	7.68
438.049	7.48
438.253	7.98
438.458	7.46
438.662	7.31
438.867	7.46
439.071	7.07
439.275	7.68
439.48	7.72
439.684	7.49
439.888	7.62
440.093	7.37
440.297	7.15
440.501	7.39
440.706	6.95
440.91	6.78
441.114	6.48
441.318	6.51
441.523	6.5
441.727	6.41
441.931	6.77
442.135	7.12
442.339	7.24
442.543	8.18
442.748	8.12
442.952	8.98
443.156	8.7
443.36	9.15
443.564	9.41
443.768	9.24
443.972	8.7
444.176	8.98
444.38	9.01
444.584	8.84
444.788	8.57
444.992	8.38
445.196	7.5
445.4	7.63
445.604	7.62
445.808	7.51
446.012	7.42
446.216	7.84
446.42	7.36
446.624	7.17
446.828	6.92
447.032	6.79
447.235	6.76
447.439	7.22
447.643	6.93
447.847	6.18
448.051	5.61
448.254	5.77
448.458	6.22
448.662	6.21
448.866	6.3
449.069	6.19
449.273	6.2
449.477	5.87
449.681	6.08
449.884	6.09
450.088	6.82
450.292	7.94
450.495	7.85
450.699	7.39
450.902	7.41
451.106	7.31
451.31	8.44
451.513	8.26
451.717	8.88
451.92	8.63
452.124	9.11
452.327	9.47
452.531	8.97
452.734	9.16
452.938	9.35
453.141	9.6
453.345	9.84
453.548	9.49
453.752	9.6
453.955	9.03
454.158	9.26
454.362	9
454.565	8.85
454.769	8.38
454.972	8.02
455.175	7.28
455.379	7.28
455.582	6.32
455.785	5.78
455.988	5.37
456.192	5
456.395	5.07
456.598	5.4
456.801	5.31
457.005	5.34
457.208	5.64
457.411	5.71
457.614	5.15
457.817	5.29
458.021	5.28
458.224	5.54
458.427	6.48
458.63	5.79
458.833	5.61
459.036	5.17
459.239	5.55
459.442	5.48
459.645	5.66
459.848	6.05
460.051	6.42
460.254	7.27
460.457	7.18
460.66	6.66
460.863	7.31
461.066	7.69
461.269	8.09
461.472	8.09
461.675	8.28
461.878	8.59
462.081	8.58
462.284	8.38
462.486	7.96
462.689	8.17
462.892	8.1
463.095	7.67
463.298	7.15
463.5	6.92
463.703	6.66
463.906	6.4
464.109	5.85
464.311	6.18
464.514	6.37
464.717	5.74
464.92	5.84
465.122	6.06
465.325	6.48
465.528	6.42
465.73	7.28
465.933	7.53
466.135	7.2
466.338	7.78
466.541	7.82
466.743	7.92
466.946	8.32
467.148	8.63
467.351	8.62
467.553	8.25
467.756	8.67
467.958	8.13
468.161	8.82
468.363	9.47
468.566	8.67
468.768	8.6
468.971	8.46
469.173	8.55
469.375	8.17
469.578	7.61
469.78	8.2
469.983	7.81
470.185	7.56
470.387	6.53
470.59	6.62
470.792	6.62
470.994	6.71
471.196	6.01
471.399	5.28
471.601	4.95
471.803	5.76
472.005	5.38
472.208	5.34
472.41	5.3
472.612	5.29
472.814	4.92
473.016	5.56
473.218	5.53
473.421	5.87
473.623	6.37
473.825	7.04
474.027	7.03
474.229	7.47
474.431	7.76
474.633	8.27
474.835	8.74
475.037	8.74
475.239	8.36
475.441	8.24
475.643	8.09
475.845	7.9
476.047	7.64
476.249	7.32
476.451	7.68
476.653	7.84
476.855	7.79
477.057	7.41
477.258	7.62
477.46	7.94
477.662	8.08
477.864	8.97
478.066	8.72
478.268	8.75
478.469	8.33
478.671	7.85
478.873	7.8
479.075	7.64
479.276	8.45
479.478	8.77
479.68	8.26
479.882	7.95
480.083	8.29
480.285	8.36
480.487	8.32
480.688	8.59
480.89	8.57
481.091	8.5
481.293	8.56
481.495	7.95
481.696	7.73
481.898	8.02
482.099	8.09
482.301	7.6
482.502	7.93
482.704	8.11
482.905	8.21
483.107	8.16
483.308	8.23
483.51	8.28
483.711	8.3
483.913	8.24
484.114	8.18
484.315	8.19
484.517	8.41
484.718	8.39
484.92	8.31
485.121	8.27
485.322	8.29
485.524	8.47
485.725	8.3
485.926	8.43
486.127	8.78
486.329	8.89
486.53	8.93
486.731	8.65
486.932	8.67
487.134	8.64
487.335	8.77
487.536	8.87
487.737	8.88
487.938	8.87
488.139	8.78
488.341	8.7
488.542	8.54
488.743	8.46
488.944	8.41
489.145	8.23
489.346	8.21
489.547	8.08
489.748	7.98
489.949	7.94
490.15	8.15
490.351	8.29
490.552	8.21
490.753	8.54
490.954	8.36
491.155	8.75
491.356	8.76
491.557	8.83
491.758	8.72
491.959	8.9
492.159	8.69
492.36	8.53
492.561	8.41
492.762	8.04
492.963	7.66
493.164	7.98
493.364	7.52
493.565	7.59
493.766	7.54
493.967	7.69
494.167	7.19
494.368	7.29
494.569	7.42
494.769	7.69
494.97	7.96
495.171	7.99
495.371	7.7
495.572	7.93
495.773	7.86
495.973	7.78
496.174	7.38
496.375	7.92
496.575	7.94
496.776	7.93
496.976	7.8
497.177	7.81
497.377	7.74
497.578	7.86
497.778	7.68
497.979	7.64
498.179	7.74
498.38	8.27
498.58	7.91
498.78	8.29
498.981	8.61
499.181	9.07
499.382	9.37
499.582	9.41
499.782	9.52
499.983	9.94
500.183	10.19
500.383	9.95
500.584	9.82
500.784	9.83
500.984	9.74
501.184	9.24
501.385	9.46
501.585	9.49
501.785	10.04
501.985	10.57
502.185	10.15
502.386	10.13
502.586	10.41
502.786	10.76
502.986	10.73
503.186	10.29
503.386	10.44
503.586	9.92
503.786	10.05
503.987	9.76
504.187	9.05
504.387	9.24
504.587	8.96
504.787	9.11
504.987	8.66
505.187	8.58
505.387	8.6
505.587	8.63
505.786	8.95
505.986	8.85
506.186	8.79
506.386	9.06
506.586	9.4
506.786	9.67
506.986	9.94
507.186	10.08
507.386	10.33
507.585	10.63
507.785	11.07
507.985	11.23
508.185	11.11
508.384	11.16
508.584	10.91
508.784	10.74
508.984	10.73
509.183	10.22
509.383	10.77
509.583	10.63
509.782	11.11
509.982	10.99
510.182	10.69
510.381	11.08
510.581	11.21
510.781	11.51
510.98	11.65
511.18	11.87
511.379	12.24
511.579	11.99
511.778	12.47
511.978	12.23
512.177	12.13
512.377	11.87
512.576	11.81
512.776	11.79
512.975	12.33
513.175	12.19
513.374	12.15
513.573	11.87
513.773	12.13
513.972	12.3
514.172	12.09
514.371	12.2
514.57	12.95
514.77	12.43
514.969	12.68
515.168	12.67
515.367	13.01
515.567	13.02
515.766	13.81
515.965	13.39
516.164	13.16
516.364	13.54
516.563	13.64
516.762	13.53
516.961	14.36
517.16	14.46
517.359	14.53
517.559	14.43
517.758	14.44
517.957	14.37
518.156	14.62
518.355	14.9
518.554	15.15
518.753	15.48
518.952	15.5
519.151	15.36
519.35	15.62
519.549	15.49
519.748	15.66
519.947	15.61
520.146	15.6
520.345	15.76
520.544	15.69
520.743	15.42
520.942	15.38
521.141	15.75
521.339	15.86
521.538	15.44
521.737	15.52
521.936	15.74
522.135	16.23
522.333	16.2
522.532	16.57
522.731	17.15
522.93	17.26
523.129	17.44
523.327	17.46
523.526	17.34
523.725	17.74
523.923	17.45
524.122	17.07
524.321	17.22
524.519	17.51
524.718	17.23
524.917	16.63
525.115	16.43
525.314	16.2
525.512	16.05
525.711	16.05
525.909	16.39
526.108	16.75
526.306	17.02
526.505	17.31
526.703	17.18
526.902	17.27
527.1	17.48
527.299	17.66
527.497	17.87
527.696	18.09
527.894	18.27
528.092	18.13
528.291	18.23
528.489	18.29
528.688	18.16
528.886	18.39
529.084	18.49
529.283	18.62
529.481	18.72
529.679	18.69
529.877	18.61
530.076	18.61
530.274	18.66
530.472	18.75
530.67	18.83
530.869	18.82
531.067	18.77
531.265	18.82
531.463	18.87
531.661	19.09
531.859	18.85
532.057	19.05
532.255	19.28
532.454	19.37
532.652	19.33
532.85	19.65
533.048	19.86
533.246	20
533.444	20.08
533.642	20.29
533.84	20.29
534.038	20.71
534.236	20.98
534.434	20.87
534.632	21.01
534.83	21.21
535.027	21.17
535.225	21.22
535.423	21.17
535.621	21.07
535.819	21.25
536.017	21.27
536.215	21.24
536.412	21.23
536.61	21.37
536.808	21.55
537.006	21.44
537.203	21.57
537.401	21.32
537.599	21.68
537.797	22.2
537.994	21.97
538.192	22.07
538.39	22.21
538.587	22.06
538.785	21.83
538.983	21.77
539.18	22.03
539.378	22.08
539.575	22.3
539.773	22.13
539.97	22
540.168	22.24
540.366	22.17
540.563	22.25
540.761	22.34
540.958	22.46
541.155	22.3
541.353	22.07
541.55	21.88
541.748	21.86
541.945	21.96
542.143	22.07
542.34	21.98
542.537	22.17
542.735	22.11
542.932	22.04
543.129	22.23
543.327	22.67
543.524	23.01
543.721	22.99
543.919	23.34
544.116	23.08
544.313	23.18
544.51	23.04
544.708	23.17
544.905	23.57
545.102	23.77
545.299	23.89
545.496	23.54
545.693	23.42
545.891	23.73
546.088	23.72
546.285	23.98
546.482	23.87
546.679	24
546.876	23.6
547.073	23.68
547.27	23.52
547.467	23.72
547.664	24.25
547.861	24.51
548.058	24.89
548.255	24.82
548.452	25.07
548.649	24.99
548.846	24.9
549.043	25.15
549.24	24.89
549.437	25.28
549.633	24.74
549.83	24.15
550.027	24.69
550.224	24.21
550.421	24.5
550.618	24.11
550.814	24.03
551.011	24.57
551.208	24.72
551.405	25.31
551.601	24.98
551.798	25.8
551.995	25.89
552.191	25.58
552.388	25.39
552.585	25.14
552.781	25.35
552.978	25.77
553.175	26.04
553.371	26.06
553.568	25.81
553.764	25.69
553.961	25.06
554.157	25.25
554.354	25.02
554.55	25.42
554.747	26.13
554.943	25.94
555.14	25.8
555.336	25.4
555.533	25.05
555.729	25.27
555.926	25.79
556.122	26.09
556.318	26.5
556.515	26.49
556.711	26.5
556.907	26.05
557.104	26.66
557.3	26.97
557.496	27.2
557.693	27.96
557.889	27.34
558.085	27.5
558.281	27.56
558.478	26.92
558.674	26.98
558.87	27.64
559.066	27.44
559.262	27.5
559.459	27.48
559.655	27.83
559.851	27.69
560.047	28.11
560.243	27.91
560.439	28.2
560.635	28.98
560.831	29.24
561.027	28.53
561.223	28.8
561.419	28.59
561.615	28.89
561.811	28.06
562.007	28.05
562.203	27.91
562.399	27.78
562.595	27.36
562.791	27
562.987	27.62
563.183	28.47
563.379	28.75
563.575	28.87
563.771	28.5
563.966	28.56
564.162	28.69
564.358	29.2
564.554	29.7
564.75	29.76
564.945	30.09
565.141	30.09
565.337	29.81
565.533	29.39
565.728	29.64
565.924	30.05
566.12	30.45
566.315	30.42
566.511	30.58
566.707	30.47
566.902	30.52
567.098	30.2
567.293	30.1
567.489	30.38
567.684	30.28
567.88	29.95
568.076	29.74
568.271	29.79
568.467	30.13
568.662	30.1
568.858	30.02
569.053	29.81
569.248	29.84
569.444	29.83
569.639	29.92
569.835	30.46
570.03	30.9
570.225	30.79
570.421	30.46
570.616	30.51
570.812	30.34
571.007	30.5
571.202	30.48
571.397	30.99
571.593	30.49
571.788	30.38
571.983	30.16
572.178	29.97
572.374	30
572.569	30.04
572.764	30.09
572.959	29.85
573.154	29.88
573.35	30.48
573.545	30.86
573.74	31.57
573.935	31.17
574.13	31.14
574.325	31.05
574.52	31.12
574.715	31.52
574.91	31.64
575.105	31.73
575.3	32.36
575.495	32.57
575.69	31.83
575.885	31.89
576.08	32.6
576.275	33.15
576.47	33.52
576.665	33.92
576.86	34.35
577.055	34.03
577.25	34.34
577.444	33.91
577.639	33.59
577.834	33.19
578.029	33.66
578.224	33.38
578.418	33.54
578.613	33.11
578.808	33.38
579.003	32.61
579.197	33.11
579.392	33.69
579.587	33.98
579.781	33.64
579.976	34.06
580.171	33.91
580.365	33.45
580.56	33.49
580.755	33.7
580.949	33.01
581.144	33.51
581.338	32.98
581.533	32.35
581.727	31.3
581.922	32.19
582.116	32.57
582.311	31.83
582.505	32.37
582.7	32.15
582.894	31.9
583.089	32.02
583.283	31.48
583.478	31.42
583.672	31.46
583.866	31.56
584.061	30.68
584.255	30.51
584.449	31.48
584.644	30.86
584.838	30.95
585.032	30.5
585.226	30.77
585.421	31.11
585.615	31.59
585.809	31.67
586.003	32.12
586.198	32.27
586.392	32.36
586.586	31.8
586.78	32.7
586.974	32.75
587.168	33.42
587.363	33.58
587.557	33.83
587.751	34.34
587.945	34.37
588.139	34.8
588.333	34.85
588.527	34.8
588.721	34.67
588.915	34.43
589.109	33.94
589.303	33.74
589.497	33.36
589.691	33.39
589.885	33.3
590.079	33.15
590.273	32.86
590.466	33.35
590.66	33.27
590.854	32.67
591.048	32.27
591.242	32.41
591.436	32.83
591.629	32.93
591.823	33.08
592.017	32.06
592.211	32.52
592.404	32.34
592.598	32.01
592.792	32.65
592.986	33.48
593.179	34.01
593.373	34.93
593.567	35.19
593.76	35.04
593.954	35.03
594.147	35.52
594.341	35.33
594.535	35.48
594.728	35.37
594.922	35.16
595.115	35.09
595.309	35.08
595.502	35.1
595.696	34.61
595.889	34.93
596.083	34.99
596.276	35.26
596.47	35.43
596.663	35.53
596.856	35.86
597.05	35.53
597.243	35.57
597.437	35.35
597.63	34.66
597.823	34.82
598.017	35.12
598.21	35.01
598.403	35.03
598.596	35.33
598.79	35.8
598.983	36.08
599.176	35.79
599.369	35.61
599.563	35.96
599.756	36.9
599.949	37.2
600.142	36.82
600.335	37.28
600.528	37.16
600.722	36.96
600.915	36.55
601.108	36.07
601.301	37.85
601.494	38.58
601.687	38.01
601.88	37.41
602.073	37.08
602.266	37.33
602.459	36.38
602.652	36.68
602.845	36.42
603.038	36.15
603.231	36.44
603.424	35.23
603.617	34.93
603.809	35.64
604.002	35.49
604.195	35.19
604.388	35.49
604.581	36.3
604.774	35.4
604.966	35.39
605.159	35.44
605.352	35.79
605.545	35.71
605.737	35.87
605.93	35.28
606.123	35.48
606.316	36.62
606.508	35.93
606.701	34.98
606.894	36.07
607.086	35.95
607.279	36.11
607.471	36.46
607.664	37.57
607.857	36.89
608.049	37.38
608.242	36.94
608.434	36.86
608.627	36.9
608.819	36.98
609.012	36.65
609.204	37.34
609.397	37.17
609.589	37.04
609.782	36.97
609.974	37.19
610.166	36.69
610.359	37.36
610.551	37.38
610.743	37.62
610.936	38.6
611.128	38.41
611.32	37.53
611.513	37.65
611.705	37.25
611.897	36.61
612.09	36.82
612.282	37.7
612.474	38.41
612.666	37.91
612.858	38.13
613.051	36.91
613.243	37.35
613.435	37.08
613.627	37.12
613.819	37.09
614.011	37.88
614.203	37.16
614.395	36.71
614.588	35.68
614.78	35.58
614.972	35.7
615.164	36.64
615.356	36.85
615.548	37.96
615.74	38.05
615.932	37.71
616.124	37.28
616.315	38.55
616.507	37.93
616.699	37.5
616.891	37.26
617.083	36.69
617.275	36.69
617.467	36.05
617.659	36.59
617.85	37.23
618.042	37.16
618.234	37.02
618.426	36.13
618.618	37.03
618.809	37.14
619.001	37.48
619.193	37.32
619.384	37.6
619.576	38.79
619.768	38.36
619.959	37.5
620.151	37.52
620.343	37.55
620.534	37.86
620.726	37.28
620.917	37.32
621.109	36.9
621.301	37.28
621.492	36.7
621.684	36.59
621.875	35.54
622.067	35.91
622.258	36.3
622.45	36.39
622.641	36.39
622.832	36.88
623.024	36.84
623.215	36.86
623.407	37.06
623.598	37.37
623.789	36.51
623.981	37.1
624.172	37.2
624.363	36.23
624.555	36.06
624.746	36.43
624.937	36.25
625.129	36.83
625.32	36.7
625.511	36.49
625.702	36.42
625.893	35.81
626.085	36.31
626.276	36.68
626.467	37.29
626.658	36.9
626.849	36.39
627.04	36.91
627.231	36.61
627.422	37.32
627.614	37.5
627.805	36.77
627.996	37.42
628.187	36.92
628.378	37.1
628.569	37.49
628.76	37.64
628.951	38.63
629.142	38.43
629.332	38.22
629.523	38.27
629.714	38.53
629.905	39.91
630.096	40.39
630.287	40.28
630.478	39.04
630.669	38.66
630.859	38.62
631.05	38.13
631.241	37.88
631.432	37.66
631.623	37.55
631.813	38.05
632.004	37.64
632.195	37.96
632.385	38.94
632.576	39.04
632.767	39.96
632.957	40.59
633.148	39.87
633.339	39.57
633.529	39.73
633.72	39.63
633.91	39.57
634.101	39.52
634.292	39.34
634.482	38.63
634.673	39.24
634.863	37.81
635.054	37.53
635.244	38.22
635.435	39.39
635.625	40.35
635.815	40.94
636.006	40.12
636.196	40.17
636.387	39.44
636.577	40.21
636.767	39.85
636.958	40.15
637.148	41.4
637.338	40.9
637.529	40.52
637.719	39.8
637.909	38.94
638.099	38.52
638.29	38.86
638.48	38.29
638.67	37.61
638.86	38.24
639.05	38.94
639.241	37.52
639.431	38.09
639.621	38.52
639.811	38.78
640.001	39.3
640.191	40.82
640.381	40.12
640.571	42.31
640.761	42.29
640.951	41.65
641.141	41.44
641.331	42.14
641.521	41.35
641.711	40.32
641.901	39.62
642.091	38.92
642.281	37.89
642.471	38.06
642.661	36.52
642.851	36.54
643.041	36.85
643.231	36.72
643.42	36.49
643.61	36.34
643.8	36.24
643.99	37.28
644.18	38.09
644.369	38.28
644.559	38.76
644.749	39.02
644.939	39.23
645.128	39.95
645.318	39.97
645.508	40.14
645.697	41.09
645.887	41.51
646.076	41.39
646.266	41.07
646.456	41.29
646.645	40.64
646.835	41.39
647.024	40.79
647.214	39.93
647.403	38.88
647.593	38.39
647.782	37.88
647.972	37.6
648.161	37.44
648.351	38.33
648.54	38.72
648.73	38.87
648.919	37.65
649.108	37.93
649.298	38.34
649.487	39.07
649.677	39.52
649.866	40.35
650.055	41.18
650.244	41.27
650.434	40.62
650.623	41.18
650.812	40.93
651.002	41.92
651.191	42.31
651.38	42.57
651.569	42.47
651.758	41.22
651.947	40.97
652.137	40.14
652.326	40.03
652.515	39.93
652.704	38.91
652.893	39.35
653.082	39.15
653.271	38.21
653.46	38.16
653.649	38.76
653.838	39.4
654.027	39.64
654.216	40.04
654.405	39.52
654.594	39.51
654.783	39.81
654.972	39.41
655.161	39.17
655.35	39.68
655.539	40.39
655.728	39.47
655.916	40.16
656.105	40.42
656.294	40.56
656.483	40.5
656.672	41.07
656.86	40.95
657.049	41.1
657.238	41.18
657.427	42.28
657.615	42.05
657.804	42.52
657.993	42.28
658.181	41.73
658.37	41.79
658.559	42.86
658.747	42.96
658.936	42.52
659.125	42.94
659.313	42.83
659.502	41.13
659.69	41.02
659.879	41.9
660.067	41.81
660.256	42.42
660.444	41.97
660.633	41.57
660.821	40.86
661.01	40.64
661.198	40.78
661.387	41.06
661.575	41.8
661.763	40.96
661.952	40.2
662.14	39.82
662.328	39.8
662.517	40.82
662.705	40.57
662.893	40.74
663.082	40.91
663.27	40.48
663.458	40.65
663.646	40.91
663.834	41
664.023	40.8
664.211	40.96
664.399	41.34
664.587	41.04
664.775	42.25
664.963	42.71
665.152	44
665.34	44.41
665.528	43.94
665.716	44.19
665.904	43.86
666.092	44.5
666.28	44.71
666.468	43.14
666.656	42.47
666.844	42.08
667.032	42.42
667.22	41.92
667.408	41.67
667.596	42.44
667.784	43.19
667.971	43.9
668.159	43.13
668.347	43.58
668.535	44.82
668.723	45.32
668.911	44.56
669.098	44.5
669.286	43.51
669.474	44.7
669.662	45
669.849	42.91
670.037	42.3
670.225	42.78
670.413	42.32
670.6	41.19
670.788	41.06
670.976	40.64
671.163	40.47
671.351	40.25
671.538	39.49
671.726	38.91
671.913	39.06
672.101	39.47
672.289	39.9
672.476	40.02
672.664	40.7
672.851	40.31
673.039	39.87
673.226	40.06
673.413	41.68
673.601	41.79
673.788	41.03
673.976	43.36
674.163	43.05
674.35	41.96
674.538	42
674.725	42.07
674.912	42.98
675.1	43.04
675.287	42.13
675.474	41.74
675.662	41.01
675.849	41.07
676.036	40.34
676.223	40.59
676.411	41.3
676.598	40.63
676.785	40.17
676.972	40.5
677.159	41.56
677.346	42.06
677.533	41.77
677.721	42.11
677.908	42.46
678.095	42.21
678.282	41.51
678.469	40.94
678.656	41.02
678.843	41.52
679.03	41.27
679.217	41.89
679.404	41.56
679.591	41.16
679.778	41.48
679.964	42.19
680.151	43.03
680.338	43.8
680.525	44.5
680.712	44.76
680.899	44.92
681.086	44.63
681.272	43.1
681.459	43.18
681.646	44.8
681.833	43.97
682.02	44.5
682.206	43.7
682.393	42.42
682.58	42.13
682.766	43.37
682.953	43.46
683.14	44.87
683.326	46.23
683.513	46.46
683.7	44.64
683.886	44.63
684.073	42.61
684.259	43.22
684.446	45.81
684.632	45.47
684.819	43.9
685.005	43.2
685.192	42.24
685.378	42.29
685.565	42.92
685.751	43.06
685.938	44.23
686.124	45.63
686.31	44.61
686.497	43.43
686.683	44.23
686.87	44.17
687.056	44.64
687.242	44.16
687.429	43.25
687.615	42.37
687.801	43.19
687.987	41.32
688.174	42.32
688.36	42.56
688.546	43.17
688.732	42.34
688.918	43.21
689.105	43.39
689.291	43.1
689.477	43.63
689.663	43.36
689.849	43.39
690.035	44.58
690.221	43.94
690.407	44.53
690.593	43.39
690.779	43.47
690.965	43.56
691.151	43.47
691.337	44.05
691.523	44.31
691.709	44.85
691.895	44.87
692.081	45.22
692.267	42.5
692.453	42.22
692.639	41.61
692.825	42.45
693.011	41.68
693.196	39.71
693.382	38.85
693.568	37.68
693.754	38.28
693.94	39.32
694.125	39.35
694.311	40.24
694.497	40.62
694.682	41.06
694.868	40
695.054	39.64
695.239	41.44
695.425	42.17
695.611	42.71
695.796	41.51
695.982	40.82
696.168	40.36
696.353	41.01
696.539	41.72
696.724	42.93
696.91	42.98
697.095	42.24
697.281	42.14
697.466	42.26
697.652	42.27
697.837	42.26
698.023	42.4
698.208	42.81
698.393	42.98
698.579	42.91
698.764	42.39
698.949	42.97
699.135	44.74
699.32	45.37
699.505	45.51
699.691	44.42
699.876	44.74
700.061	44.29
700.246	44.22
700.432	44.01
700.617	43.31
700.802	43.49
700.987	42.17
701.172	41.24
701.358	40.27
701.543	37.78
701.728	39.85
701.913	40.94
702.098	40.35
702.283	38.82
702.468	36.91
702.653	37.33
702.838	37.8
703.023	38.46
703.208	39.19
703.393	40.23
703.578	42.44
703.763	41.17
703.948	40.93
704.133	42.08
704.318	44.07
704.503	46.24
704.688	45.79
704.873	45.74
705.057	46.21
705.242	46.03
705.427	45.47
705.612	45.55
705.797	48.08
705.981	48.31
706.166	48.31
706.351	47.44
706.536	48.52
706.72	48.24
706.905	46.87
707.09	47.9
707.274	48.9
707.459	50.58
707.644	50.78
707.828	47.09
708.013	46.55
708.197	45.55
708.382	46.27
708.567	44.66
708.751	45.08
708.936	47.67
709.12	46.45
709.305	45.95
709.489	44.61
709.673	43.05
709.858	45.43
710.042	44.01
710.227	45.51
710.411	43.8
710.596	43.32
710.78	42.85
710.964	42.48
711.149	44.26
711.333	42.27
711.517	42.72
711.702	43.8
711.886	42.25
712.07	42.33
712.254	41.51
712.438	41.92
712.623	43.05
712.807	44.28
712.991	44.47
713.175	43.59
713.359	44.34
713.544	43.15
713.728	42.63
713.912	43.64
714.096	46.66
714.28	47.85
714.464	47.31
714.648	47.92
714.832	47.49
715.016	46.88
715.2	46.89
715.384	48.4
715.568	48.34
715.752	49.21
715.936	48.99
716.12	48.46
716.304	47.8
716.488	48.4
716.671	45.47
716.855	44.08
717.039	43.78
717.223	42.46
717.407	42.77
717.59	42.28
717.774	43.89
717.958	43.45
718.142	40.92
718.325	41.25
718.509	41.16
718.693	42.62
718.877	42.21
719.06	40.23
719.244	40.89
719.428	39.9
719.611	42.19
719.795	40.02
719.978	40.35
720.162	41.61
720.345	40.14
720.529	41.28
720.713	41.98
720.896	43.91
721.08	45.91
721.263	44.53
721.446	44.32
721.63	43.35
721.813	45.71
721.997	48.16
722.18	47.18
722.364	47.89
722.547	45.76
722.73	46.02
722.914	44.31
723.097	44.6
723.28	46.11
723.464	48.23
723.647	45.61
723.83	44.41
724.013	42.02
724.197	42.94
724.38	43.75
724.563	45.75
724.746	44.13
724.929	42.92
725.112	41.6
725.296	40.27
725.479	38.75
725.662	41.15
725.845	41.03
726.028	41.98
726.211	42.02
726.394	39.44
726.577	40.59
726.76	41.49
726.943	42.78
727.126	43.03
727.309	45.97
727.492	43.51
727.675	43.93
727.858	41.7
728.041	38.86
728.224	39.58
728.407	41.6
728.589	41.44
728.772	40.96
728.955	40.77
729.138	39.78
729.321	37.68
729.503	39.98
729.686	38.71
729.869	37.82
730.052	41.93
730.234	40.28
730.417	39.25
730.6	38.31
730.782	37.18
730.965	39.37
731.148	40.89
731.33	41.68
731.513	40.26
731.695	42.34
731.878	43.77
732.061	42.17
732.243	44.21
732.426	44.17
732.608	44.85
732.791	45.94
732.973	43.2
733.156	43.49
733.338	42.18
733.52	42.8
733.703	39.02
733.885	39.62
734.068	42.49
734.25	41.42
734.432	42.69
734.615	41.26
734.797	40.71
734.979	41.7
735.162	42.52
735.344	41.55
735.526	43.06
735.708	45.59
735.891	44
736.073	41.07
736.255	42.91
736.437	43.05
736.619	43.18
736.802	42.68
736.984	43.2
737.166	40.24
737.348	41.65
737.53	40.02
737.712	38.86
737.894	38.71
738.076	35.46
738.258	33.15
738.44	32.27
738.622	31.09
738.804	33.56
738.986	32.85
739.168	33.96
739.35	31.79
739.532	31.24
739.714	32
739.896	34.61
740.078	39.83
740.259	40.37
740.441	39.12
740.623	38.08
740.805	37.26
740.987	36.15
741.168	33.72
741.35	35.73
741.532	37.32
741.714	37.32
741.895	39.36
742.077	38.82
742.259	38.4
742.44	38.52
742.622	40.67
742.804	39.71
742.985	40.71
743.167	44.19
743.348	45.09
743.53	45.33
743.711	43.87
743.893	41.16
744.075	40.6
744.256	43.33
744.438	44.09
744.619	44.16
744.8	45.39
744.982	45.75
745.163	44.47
745.345	46.74
745.526	44.85
745.707	45.92
745.889	45
746.07	45
746.252	45.48
746.433	47.24
746.614	46.85
746.795	46.86
746.977	46.88
747.158	46.19
747.339	44.99
747.52	48.64
747.702	49.59
747.883	50.25
748.064	48.47
748.245	44.58
748.426	47.22
748.607	44.66
748.788	41.15
748.97	41.76
749.151	44.34
749.332	45.17
749.513	41.37
749.694	40.05
749.875	39.64
750.056	40.5
750.237	41.24
750.418	39.73
750.599	40.12
750.78	43.75
750.96	41.2
751.141	39.8
751.322	36.39
751.503	37.11
751.684	41.73
751.865	42.96
752.046	43.03
752.226	43.84
752.407	41.34
752.588	41.63
752.769	44.93
752.949	48.23
753.13	48.04
753.311	50.53
753.492	51.46
753.672	48.5
753.853	49.15
754.034	47.42
754.214	41.82
754.395	39.42
754.575	43.48
754.756	41.87
754.937	43.77
755.117	46.33
755.298	46.76
755.478	44.54
755.659	45.71
755.839	45.67
756.02	46.96
756.2	52.81
756.381	54.31
756.561	49.32
756.741	48.7
756.922	47.34
757.102	44.6
757.283	41.9
757.463	44.76
757.643	41.81
757.823	40.17
758.004	40.76
758.184	39.92
758.364	42.14
758.545	45.42
758.725	44.09
758.905	42.6
759.085	41.48
759.265	42.86
759.446	42.14
759.626	42.77
759.806	40.12
759.986	39.42
760.166	37.96
760.346	36.25
760.526	37.67
760.706	38.89
760.886	40.72
761.066	42.78
761.246	43.38
761.426	42.01
761.606	42.48
761.786	44.94
761.966	44.03
762.146	44.28
762.326	44.1
762.506	44.25
762.686	43.75
762.866	44.31
763.046	45.76
763.225	46.06
763.405	46.57
763.585	46.21
763.765	46.98
763.945	46.15
764.124	45.54
764.304	44.97
764.484	44.06
764.664	42.23
764.843	39.92
765.023	36.38
765.203	35.22
765.382	35.5
765.562	36.82
765.741	32.67
765.921	36.08
766.101	34.66
766.28	36.8
766.46	35.35
766.639	37.05
766.819	38.7
766.998	40.04
767.178	39.71
767.357	41.89
767.537	39.27
767.716	40.45
767.896	38.84
768.075	40.74
768.254	40.14
768.434	39.22
768.613	41.93
768.792	38.29
768.972	40.26
769.151	41.51
769.33	41.43
769.51	43.03
769.689	44.49
769.868	45.07
770.047	44.78
770.226	46.14
770.406	45.39
770.585	42.97
770.764	44.1
770.943	45.46
771.122	43.09
771.301	40.61
771.48	41.46
771.66	44.28
771.839	46.14
772.018	46.2
772.197	45.67
772.376	49.26
772.555	47.13
772.734	49.84
772.913	48.29
773.092	46.87
773.271	47.34
773.449	46.7
773.628	43.72
773.807	39.11
773.986	42.37
774.165	39.84
774.344	38.48
774.523	40.59
774.701	40.01
774.88	40.52
775.059	42.04
775.238	39.26
775.417	39.91
775.595	38.73
775.774	41.75
775.953	38.01
776.131	36.54
776.31	39.19
776.489	36.76
776.667	32.12
776.846	31.64
777.025	30.53
777.203	32.03
777.382	30.3
777.56	30.02
777.739	26.08
777.917	28.82
778.096	31.82
778.274	28.7
778.453	35.72
778.631	42.61
778.81	35.2
778.988	39.17
779.166	40.44
779.345	41.11
779.523	42.36
779.702	46.06
779.88	47.2
780.058	44.08
780.237	44.26
780.415	42
780.593	40.66
780.771	49.54
780.95	47.8
781.128	48.58
781.306	49.59
781.484	51.01
781.662	50.56
781.841	44.35
782.019	45.28
782.197	47.91
782.375	46.5
782.553	45.52
782.731	44.87
782.909	43.39
783.087	41.19
783.265	42.39
783.443	43.53
783.621	37.03
783.799	40.37
783.977	42.65
784.155	43.03
784.333	43.65
784.511	45.09
784.689	44.34
784.867	46.34
785.045	43.91
785.223	38.31
785.4	37.51
785.578	44.02
785.756	42.75
785.934	41.72
786.112	38.38
786.289	36.48
786.467	35.36
786.645	34.94
786.823	38.05
787	43.98
787.178	45.9
787.356	40.82
787.533	36.98
787.711	40.39
787.889	38.52
788.066	39.92
788.244	42.2
788.421	40.89
788.599	41.42
788.776	40.63
788.954	37.93
789.131	37.27
789.309	40.9
789.486	38.31
789.664	35.51
789.841	41.44
790.019	35.71
790.196	35.05
790.373	35.36
790.551	32.43
790.728	30.74
790.906	29.88
791.083	33.4
791.26	37.99
791.437	44.62
791.615	46.89
791.792	45.75
791.969	47.52
792.146	49.44
792.324	47.01
792.501	42.64
792.678	45.26
792.855	41.73
793.032	37.29
793.209	36.87
793.387	36.56
793.564	39.76
793.741	38.76
793.918	42.72
794.095	40.13
794.272	46.36
794.449	51.17
794.626	43.51
794.803	50.15
794.98	56.81
795.157	54.03
795.334	59.29
795.511	55.21
795.688	51.35
795.864	48.64
796.041	47.43
796.218	44.25
796.395	42.85
796.572	46.21
796.749	40.94
796.925	36.31
797.102	37.4
797.279	33.07
797.456	31.13
797.632	31.84
797.809	32.66
797.986	33.89
798.162	34.01
798.339	34.57
798.516	35.93
798.692	36.46
798.869	41.18
799.046	44.11
799.222	43.76
799.399	44.38
799.575	47.82
799.752	40.96
799.928	38.81
800.105	36.8
800.281	35.27
800.458	36.47
800.634	39.41
800.811	39.06
800.987	36.81
801.163	40.79
801.34	40.68
801.516	42.78
801.692	47.38
801.869	53.59
802.045	52.35
802.221	57.81
802.398	52.12
802.574	50.24
802.75	46.34
802.926	47.94
803.103	43.15
803.279	40.85
803.455	41.25
803.631	41.13
803.807	33.85
803.983	29.43
804.16	24.57
804.336	26.3
804.512	24.2
804.688	25.38
804.864	16.66
805.04	15.86
805.216	16.52
805.392	5.14
805.568	8.66
805.744	11.27
805.92	21.94
806.096	20.5
806.272	19.24
806.448	25.23
806.623	25.69
806.799	33.94
806.975	37.47
807.151	38.27
807.327	39.83
807.503	39.31
807.678	38.11
807.854	32.05
808.03	39.56
808.206	37.75
808.381	39.01
808.557	36.97
808.733	38.17
808.908	38.08
809.084	37.42
809.26	39.72
809.435	39.1
809.611	38.99
809.787	40.77
809.962	38.68
810.138	38.44
810.313	30.99
810.489	33.05
810.664	35.74
810.84	34.29
811.015	32.87
811.191	31.15
811.366	34.18
811.542	28.8
811.717	33.92
811.892	37.11
812.068	46.58
812.243	53.12
812.419	49.94
812.594	41.9
812.769	35.95
812.944	37.66
813.12	41.21
813.295	42.24
813.47	46.5
813.645	41.41
813.821	37.28
813.996	28.16
814.171	30.16
814.346	30.64
814.521	31.8
814.697	32.6
814.872	27.79
815.047	25.15
815.222	23.47
815.397	25.51
815.572	28.54
815.747	29.47
815.922	33.11
816.097	31.34
816.272	31.65
816.447	35.58
816.622	32.92
816.797	38.38
816.972	34.14
817.147	31.77
817.322	31.26
817.496	31.24
817.671	26.18
817.846	21.93
818.021	21.4
818.196	26.58
818.371	25.48
818.545	28.94
818.72	28.82
818.895	34.94
819.069	34.44
819.244	38.48
819.419	39.5
819.594	42.68
819.768	44.05
819.943	41.11
820.117	39.29
820.292	37.23
820.467	39.49
820.641	39.87
820.816	40.1
820.99	41.17
821.165	39.75
821.339	38.74
821.514	38.44
821.688	38.3
821.863	39.73
822.037	40.18
822.212	40.88
822.386	40.61
822.56	40.22
822.735	40.28
822.909	40.19
823.084	40.74
823.258	41.05
823.432	41.16
823.606	40.91
823.781	39.84
823.955	38.72
824.129	38.3
824.303	38.52
824.478	38.73
824.652	37.09
824.826	36.11
825	35.44
825.174	37.38
825.348	37.66
825.523	39.75
825.697	39.44
825.871	40.77
826.045	39.46
826.219	39.4
826.393	39.73
826.567	41.01
826.741	43.1
826.915	43.21
827.089	41.44
827.263	40.45
827.437	39.6
827.611	42.05
827.784	40.37
827.958	40.37
828.132	39.9
828.306	39.91
828.48	37.52
828.654	33.77
828.827	32.98
829.001	31.75
829.175	33.84
829.349	35.03
829.522	29.04
829.696	31.38
829.87	34.16
830.044	36.24
830.217	32.56
830.391	29.65
830.565	30.89
830.738	26.39
830.912	25.86
831.085	21.31
831.259	16.58
831.432	18.08
831.606	17.73
831.779	16.69
831.953	10.57
832.126	20.47
832.3	21.67
832.473	19.05
832.647	24.87
832.82	24.86
832.994	22.15
833.167	26.76
833.34	29.99
833.514	29.18
833.687	29.31
833.86	32.42
834.034	24.88
834.207	27.26
834.38	28.07
834.553	29.62
834.727	28.62
834.9	37.52
835.073	38.39
835.246	38.84
835.419	39.42
835.593	37.83
835.766	36.59
835.939	38.04
836.112	41.72
836.285	46.11
836.458	45.38
836.631	50.15
836.804	40.22
836.977	36.79
837.15	30.24
837.323	29.78
837.496	36.04
837.669	31.55
837.842	34.51
838.015	27.3
838.188	31
838.361	27.77
838.533	30.28
838.706	42.72
838.879	37.71
839.052	39.61
839.225	43.39
839.398	43.25
839.57	49.17
839.743	45.82
839.916	47.85
840.088	39.64
840.261	40.46
840.434	40.59
840.607	39.4
840.779	42.91
840.952	40.09
841.124	38.42
841.297	40.47
841.47	42.3
841.642	39.01
841.815	37.87
841.987	43.52
842.16	39.9
842.332	44.44
842.505	38.81
842.677	35.18
842.85	44.83
843.022	36.61
843.194	27.17
843.367	19.22
843.539	25.82
843.712	38.98
843.884	32.22
844.056	30.22
844.229	20.99
844.401	19.62
844.573	18.26
844.745	19.92
844.918	29.88
845.09	40.48
845.262	43.57
845.434	42.16
845.606	8.65
845.779	10.76
845.951	19.48
846.123	26.01
846.295	17.83
846.467	28.39
846.639	23.4
846.811	14.98
846.983	16.55
847.155	10.19
847.327	19.17
847.499	41.23
847.671	36.51
847.843	40.87
848.015	32.51
848.187	45.26
848.359	29.5
848.531	26.02
848.703	38.3
848.875	22.44
849.047	24.16
849.218	24.15
849.39	-8.29
849.562	-6.9
849.734	-23.99
849.905	-16.2
850.077	0.27
850.249	-4.44
850.421	7.71
850.592	-14.16
850.764	-5.34
850.936	-2.59
851.107	27.26
851.279	56
851.451	84.01
851.622	126.54
851.794	125.52
851.965	79.34
852.137	80.07
852.308	80.48
852.48	79.39
852.651	44.3
852.823	28.53
852.994	-10.98
853.166	-30.25
853.337	-38.15
853.509	-44.65
853.68	-91.37
853.851	-41.93
854.023	-44.37
854.194	-50.82
854.365	-71.54
854.537	-14.42
854.708	0.43
854.879	14.64
855.05	18.08
855.222	14
855.393	-0.69
855.564	1.68
855.735	-21.96
855.906	-8.41
856.078	-18.6
856.249	-9.69
856.42	-11.63
856.591	-8.9
856.762	5
856.933	23.6
857.104	22.05
857.275	43.79
857.446	57.25
857.617	68.92
857.788	58.39
857.959	49.59
858.13	44.85
858.301	31.84
858.472	30.63
858.643	22.04
858.814	-7.68
858.985	5
859.155	-3.28
859.326	-13.82
859.497	-2.74
859.668	-25.26
859.839	-12.34
860.009	-20.07
860.18	-6.57
860.351	-9.28
860.522	6.94
860.692	2.85
860.863	-11.1
861.034	-9.4
861.204	-25.09
861.375	-49.18
861.546	1.7
861.716	-39.01
861.887	-35.83
862.057	-1.81
862.228	25.05
862.398	12.45
862.569	23.61
862.739	22.17
862.91	16.17
863.08	5.78
863.251	10.47
863.421	5.39
863.592	8.86
863.762	15.84
863.932	-6.6
864.103	-36.88
864.273	-52.66
864.443	-80.79
864.614	-57.69
864.784	-39.85
864.954	-12.61
865.125	-35.11
865.295	-23.73
865.465	-11.83
865.635	-23.48
865.805	3.63
865.976	21.67
866.146	22.89
866.316	25.47
866.486	11.62
866.656	12.37
866.826	1.48
866.996	5.79
867.166	0.2
867.336	-1.16
867.506	9.2
867.676	-7.86
867.846	-25.76
868.016	-22.66
868.186	-26.8
868.356	-1.06
868.526	-28.44
868.696	-23.63
868.866	-106.13
869.036	-53.83
869.206	-54.57
869.376	-49.03
869.545	-17.38
869.715	-2.19
869.885	0.93
870.055	23.64
870.224	10.89
870.394	12.62
870.564	27.64
870.734	47.85
870.903	64.36
871.073	68.79
871.243	68.52
871.412	53.64
871.582	35.29
871.751	34.04
871.921	6.66
872.091	4.97
872.26	5.07
872.43	-1.74
872.599	-5.2
872.769	9.67
872.938	-6.68
873.108	-9.47
873.277	-0.18
873.446	-9.71
873.616	-4.18
873.785	16.51
873.955	21.82
874.124	21.12
874.293	22.53
874.463	27.34
874.632	24
874.801	34.56
874.971	30.62
875.14	20.73
875.309	24.88
875.478	28.01
875.647	17.36
875.817	21.21
875.986	24.91
876.155	36.98
876.324	31.57
876.493	15.11
876.662	22.83
876.831	16.75
877	22.85
877.17	30.93
877.339	18.48
877.508	22.34
877.677	17.76
877.846	10.02
878.015	-6.71
878.184	-28.02
878.352	-19.07
878.521	-32.58
878.69	-37.17
878.859	-14.56
879.028	-1.9
879.197	0.54
879.366	-20.86
879.534	-26.75
879.703	-9.5
879.872	-6.69
880.041	5.7
880.21	9.94
880.378	14.96
880.547	24.41
880.716	18.24
880.884	17.56
881.053	18.17
881.222	23.38
881.39	23.22
881.559	24.59
881.727	27.61
881.896	29.59
882.065	29.8
882.233	25.99
882.402	24.38
882.57	24.78
882.739	27.54
882.907	31.08
883.076	30.22
883.244	32.12
883.412	29.34
883.581	27.07
883.749	28.69
883.918	24.97
884.086	27.63
884.254	28.12
884.423	31.15
884.591	28.55
884.759	22.97
884.927	16.11
885.096	15.88
885.264	16.81
885.432	19.85
885.6	14.2
885.769	20
885.937	22.87
886.105	18.88
886.273	4.58
886.441	-13.42
886.609	-19.6
886.777	-10.94
886.945	-21.81
887.113	-36.88
887.281	-68.3
887.449	-37.62
887.617	-20.24
887.785	-23.48
887.953	-28.46
888.121	-37.28
888.289	-33.73
888.457	-21.32
888.625	-38.08
888.793	-41.3
888.961	-22.84
889.129	13.97
889.296	17.95
889.464	11.93
889.632	20.09
889.8	31.18
889.967	32.38
890.135	32.22
