Data from JASIL_3101_Relative_2.txt Node
Date: Thu Nov 12 19:28:46 EST 2015
User: Geneva
Spectrometer: USB4E03002
Autoset integration time: false
Trigger mode: 4
Integration Time (sec): 1.000000E-1
Scans to average: 10
Electric dark correction enabled: true
Nonlinearity correction enabled: false
Boxcar width: 5
Stray light correction enabled: false
XAxis mode: Wavelengths
Stop averaging: false
Number of Pixels in Spectrum: 3648
>>>>>Begin Spectral Data<<<<<
177.575	42.56
177.794	-100.48
178.014	-66.05
178.233	17.1
178.452	-15.23
178.672	-29.71
178.891	233.1
179.11	57.98
179.33	877.98
179.549	-56.43
179.768	-129.04
179.987	549.47
180.207	-55.81
180.426	352.84
180.645	-1105.56
180.864	99.08
181.084	97.79
181.303	69.62
181.522	10.35
181.741	4.86
181.96	-4.67
182.179	-399.33
182.398	183.21
182.618	460.74
182.837	2.06
183.056	151.66
183.275	24.99
183.494	-58.76
183.713	-19.76
183.932	-193.93
184.151	-133.1
184.37	-419.05
184.589	-102.94
184.808	6.69
185.027	-464.73
185.246	-119.81
185.465	-83.74
185.684	-30.36
185.903	-22.08
186.122	-0.91
186.341	165.66
186.56	173.51
186.779	-97.33
186.998	-29.33
187.216	97.01
187.435	60.34
187.654	69.93
187.873	63.17
188.092	60.52
188.311	40.12
188.53	54.43
188.748	83.8
188.967	109.72
189.186	174.3
189.405	198.27
189.623	114.69
189.842	-209.02
190.061	-1850.63
190.28	-2.82
190.498	35.02
190.717	52.07
190.936	49.52
191.154	117.56
191.373	98.71
191.592	72.17
191.81	88.39
192.029	119.93
192.248	99.89
192.466	45.34
192.685	84.49
192.904	39.17
193.122	6.6
193.341	17.61
193.559	359.74
193.778	-541.76
193.996	-103.11
194.215	-129.57
194.433	-156.31
194.652	-1188.42
194.87	426.76
195.089	410.54
195.307	120.96
195.526	84.73
195.744	147.46
195.963	187.26
196.181	734.9
196.399	62.97
196.618	29.27
196.836	-28.21
197.055	32.28
197.273	-14.64
197.491	-64.35
197.71	1870
197.928	83.5
198.146	60.64
198.365	-48.09
198.583	-1922.41
198.801	25.55
199.019	-83.56
199.238	-41.26
199.456	-18.15
199.674	19.93
199.892	25.63
200.111	-93.01
200.329	305.42
200.547	204.25
200.765	234.09
200.983	213.88
201.202	213.93
201.42	94.92
201.638	180.46
201.856	179.27
202.074	187.24
202.292	194.37
202.51	-392.75
202.728	-164.41
202.946	-84.52
203.165	-17.95
203.383	22.16
203.601	42.36
203.819	30.51
204.037	60.58
204.255	44.78
204.473	67.3
204.691	75.04
204.909	102.4
205.127	125.27
205.345	177.82
205.562	-3.28
205.78	3.06
205.998	-88.83
206.216	-725.67
206.434	283.21
206.652	-3391.18
206.87	-207.69
207.088	-103.62
207.306	-606.55
207.523	-148.5
207.741	-340.53
207.959	3741.7
208.177	38452
208.395	-407.99
208.612	-724.53
208.83	-165.29
209.048	-177.55
209.266	-547.14
209.483	-92.03
209.701	26.1
209.919	-41.07
210.136	-100.32
210.354	-106.02
210.572	97.97
210.79	-159.32
211.007	176.16
211.225	346.95
211.442	87.31
211.66	223.47
211.878	-61.58
212.095	-418.52
212.313	-727.6
212.53	-586.27
212.748	-641.68
212.966	-272.1
213.183	-235.74
213.401	-346.8
213.618	-592.68
213.836	-754.8
214.053	-700.59
214.271	-519.97
214.488	30.96
214.705	-9.88
214.923	1340.97
215.14	-2013.59
215.358	141.5
215.575	108.2
215.793	80.92
216.01	50.54
216.227	2914.81
216.445	472.24
216.662	145.5
216.879	1656.6
217.097	97.22
217.314	-52.39
217.531	-263.15
217.749	129.67
217.966	219.46
218.183	343.43
218.4	133.26
218.618	247.45
218.835	216.65
219.052	141.97
219.269	101.29
219.487	109.54
219.704	104.48
219.921	80.76
220.138	93.73
220.355	93.25
220.572	159.33
220.79	136.21
221.007	152.35
221.224	42.81
221.441	32.2
221.658	-24.57
221.875	-58.13
222.092	-4.57
222.309	2.06
222.526	-45.07
222.743	-55.09
222.96	-54.12
223.177	-19.56
223.394	-2.75
223.611	-219.02
223.828	-18.3
224.045	-5.58
224.262	12.48
224.479	-23.76
224.696	-19.82
224.913	22.74
225.13	14.7
225.347	-44.86
225.564	-42.37
225.781	-94.92
225.997	-65.03
226.214	-68.5
226.431	-67.31
226.648	-42.45
226.865	-36.68
227.082	-68.53
227.298	-81.85
227.515	-82.69
227.732	-19.49
227.949	-26.02
228.165	-35.49
228.382	-22.07
228.599	-48.92
228.816	-37.32
229.032	-15.02
229.249	-4.63
229.466	2.01
229.682	-1.9
229.899	13.14
230.116	7.76
230.332	13.24
230.549	21.7
230.765	25.04
230.982	41.47
231.199	23.94
231.415	12.85
231.632	18.95
231.848	28.48
232.065	27.59
232.281	22.16
232.498	28.01
232.714	11.77
232.931	3.63
233.147	19.45
233.364	-1.74
233.58	46.64
233.797	34.11
234.013	46.11
234.23	27.15
234.446	32.47
234.662	8.23
234.879	20.25
235.095	1.4
235.312	24.61
235.528	15.63
235.744	6.35
235.961	-10.27
236.177	13.22
236.393	-31.81
236.61	21.04
236.826	39.85
237.042	47.82
237.258	46.31
237.475	63.3
237.691	55.09
237.907	39.81
238.123	36.99
238.339	29.45
238.556	19.94
238.772	19.55
238.988	6.93
239.204	-12.72
239.42	-8.37
239.636	-16.04
239.853	-5.25
240.069	-5.45
240.285	0.43
240.501	3.88
240.717	4.75
240.933	1.32
241.149	2.94
241.365	-0.94
241.581	4
241.797	-0.26
242.013	5.38
242.229	3.79
242.445	7.72
242.661	8.19
242.877	12.22
243.093	14.65
243.309	19.88
243.525	21.86
243.741	23.29
243.957	20.25
244.173	18.98
244.388	11.78
244.604	14.82
244.82	18.29
245.036	18.86
245.252	12.6
245.468	13.47
245.683	10.76
245.899	9.73
246.115	9.01
246.331	9.87
246.547	10.69
246.762	14.11
246.978	10.45
247.194	6.29
247.409	4.91
247.625	3.55
247.841	0.47
248.057	2.53
248.272	-2.87
248.488	-2.83
248.703	-0.63
248.919	-3.05
249.135	-15.27
249.35	-7.58
249.566	-6.06
249.782	0.6
249.997	8.13
250.213	8.04
250.428	5.89
250.644	17.37
250.859	18.62
251.075	19.21
251.29	21.33
251.506	24.47
251.721	17.61
251.937	15.93
252.152	8.96
252.368	11.48
252.583	8.13
252.798	2.89
253.014	-0.47
253.229	-1.45
253.445	-11.58
253.66	-15.36
253.875	-12.39
254.091	-24.12
254.306	-21.82
254.521	-20.83
254.737	-41.67
254.952	-21.16
255.167	-18.71
255.383	-14.44
255.598	-13.12
255.813	12.86
256.028	14.79
256.244	13.37
256.459	25.75
256.674	20.64
256.889	20.05
257.104	18.64
257.32	16.51
257.535	16.76
257.75	16.46
257.965	16.25
258.18	10.95
258.395	8.08
258.61	6.56
258.826	5.72
259.041	8.1
259.256	8.15
259.471	7.12
259.686	8.95
259.901	8.77
260.116	7.43
260.331	5.71
260.546	5.22
260.761	6.55
260.976	5.85
261.191	5.5
261.406	3.77
261.621	0.97
261.836	3.09
262.05	2.2
262.265	5.34
262.48	4.05
262.695	6.07
262.91	-0.83
263.125	1.39
263.34	-6.15
263.555	-7.49
263.769	-7.99
263.984	-3.12
264.199	-3.96
264.414	-6.23
264.629	-7.67
264.843	-11.14
265.058	-5.46
265.273	-4.7
265.488	-5.02
265.702	1.38
265.917	3.88
266.132	9.61
266.346	7.3
266.561	4.95
266.776	8.18
266.99	1.95
267.205	4.85
267.42	-1.57
267.634	2.43
267.849	-0.94
268.063	-0.8
268.278	1.02
268.492	-1.38
268.707	-0.36
268.922	5.75
269.136	2.05
269.351	6.43
269.565	9.02
269.78	11.57
269.994	7.87
270.209	6.71
270.423	7.31
270.637	3.64
270.852	1.7
271.066	0.69
271.281	-1.71
271.495	-0.78
271.709	-2.88
271.924	-5.34
272.138	-6.42
272.353	-4.62
272.567	-0.12
272.781	-0.75
272.996	1.19
273.21	0.78
273.424	3.15
273.638	1.65
273.853	1.93
274.067	3.47
274.281	4.48
274.495	1.47
274.71	3.24
274.924	0.73
275.138	1.34
275.352	1.07
275.566	2.42
275.781	3.29
275.995	1.22
276.209	-1.04
276.423	-1.39
276.637	-2.03
276.851	-0.16
277.065	-1.91
277.279	-4.71
277.493	0.53
277.707	-1.86
277.921	-4.53
278.135	-4.71
278.349	-3.89
278.563	-1.16
278.777	-0.66
278.991	-3.49
279.205	1.75
279.419	3.04
279.633	6.41
279.847	5.24
280.061	4.52
280.275	5.73
280.489	2.19
280.703	5.11
280.917	5.2
281.131	6.61
281.344	6.83
281.558	4.42
281.772	0.98
281.986	1.31
282.2	-1.74
282.414	0.98
282.627	1.1
282.841	3.14
283.055	5.01
283.269	2.79
283.482	3.92
283.696	6.02
283.91	9.21
284.123	12.63
284.337	13.18
284.551	13.56
284.764	13.24
284.978	14.77
285.192	13.81
285.405	12.75
285.619	14.63
285.833	12.61
286.046	12.06
286.26	9.94
286.473	8.44
286.687	5.3
286.9	5.24
287.114	6.39
287.327	1.28
287.541	4.1
287.754	3.81
287.968	3.38
288.181	2.25
288.395	1.36
288.608	1.62
288.822	-0.33
289.035	2.02
289.248	-2.47
289.462	-0.2
289.675	1.48
289.889	-1.44
290.102	-1.73
290.315	-2.76
290.529	-4.34
290.742	-3.16
290.955	-3.1
291.169	-1.97
291.382	-4.43
291.595	-1.92
291.808	-4.54
292.022	-0.65
292.235	-0.01
292.448	0.85
292.661	0.28
292.875	2.34
293.088	-1.12
293.301	-1.79
293.514	-2.17
293.727	-1.47
293.94	1.32
294.153	2.34
294.367	-0.19
294.58	0.24
294.793	-0.88
295.006	3.25
295.219	3.67
295.432	6.43
295.645	7.43
295.858	8.16
296.071	9.82
296.284	8.47
296.497	7.8
296.71	8.38
296.923	8.28
297.136	8.58
297.349	6.93
297.562	8.87
297.775	9.06
297.988	7.61
298.201	7.98
298.414	7.24
298.626	8.75
298.839	8.63
299.052	8.15
299.265	8.63
299.478	8.24
299.691	5.85
299.903	2.88
300.116	2.38
300.329	1.58
300.542	1.87
300.755	2.21
300.967	0.49
301.18	-0.8
301.393	1.33
301.605	1.51
301.818	4.15
302.031	5.22
302.243	6.36
302.456	5.37
302.669	10.41
302.881	12.15
303.094	13.01
303.307	15.19
303.519	13.63
303.732	13.32
303.944	11.14
304.157	10.54
304.37	9.97
304.582	9.62
304.795	8.84
305.007	4.65
305.22	5.37
305.432	5.15
305.645	5.75
305.857	9
306.069	6.36
306.282	8.17
306.494	6.52
306.707	7.17
306.919	8.58
307.132	10.09
307.344	8.32
307.556	6.8
307.769	5.39
307.981	2.47
308.193	1.81
308.406	3.76
308.618	3.74
308.83	2.45
309.043	4.3
309.255	1.99
309.467	2.76
309.679	6.59
309.892	7.19
310.104	9.14
310.316	10.36
310.528	8.95
310.74	8.94
310.953	9.08
311.165	10.21
311.377	6.52
311.589	8.27
311.801	8.02
312.013	7.86
312.225	6.82
312.437	4.55
312.649	3.53
312.862	4.48
313.074	2.5
313.286	2.29
313.498	2.34
313.71	4.53
313.922	2.25
314.134	2.24
314.346	0.19
314.558	-0.66
314.77	-0.46
314.982	-1.84
315.193	-1.27
315.405	-0.57
315.617	-3.22
315.829	-1.54
316.041	-3.06
316.253	0.98
316.465	-0.62
316.677	-0.84
316.888	0.64
317.1	0.7
317.312	1.11
317.524	0.42
317.736	1.3
317.947	3.67
318.159	-0.91
318.371	1.22
318.583	-4.94
318.794	-3.34
319.006	-1.17
319.218	-2.02
319.43	0.57
319.641	1.56
319.853	0.3
320.064	-1.87
320.276	-1.15
320.488	4.02
320.699	5.21
320.911	7.37
321.123	8.95
321.334	8.59
321.546	10.63
321.757	6.53
321.969	6.55
322.18	7.64
322.392	8.99
322.603	5.93
322.815	4.85
323.026	0.26
323.238	1.09
323.449	0.85
323.661	-1.31
323.872	-2.07
324.083	-2.47
324.295	-0.93
324.506	1.71
324.718	1.68
324.929	8.31
325.14	7.65
325.352	9.15
325.563	8.13
325.774	4.85
325.986	4.06
326.197	4.18
326.408	5.34
326.62	4.02
326.831	1.64
327.042	0.25
327.253	-4.4
327.464	-4.2
327.676	-3.06
327.887	-3.82
328.098	-2.64
328.309	-0.6
328.52	-0.91
328.732	0.2
328.943	1.99
329.154	5.77
329.365	5.46
329.576	6.04
329.787	5.73
329.998	5.61
330.209	6.64
330.42	6.27
330.631	5.36
330.842	3.93
331.053	3.41
331.264	-1.15
331.475	-3.54
331.686	0.39
331.897	-0.15
332.108	-1.38
332.319	-1.43
332.53	-1.52
332.741	-1.89
332.952	-1.54
333.163	-0.24
333.374	0.73
333.585	1.01
333.795	-0.23
334.006	-1.64
334.217	-1.99
334.428	0.34
334.639	-0.02
334.849	0.31
335.06	4.31
335.271	3.92
335.482	0.33
335.692	1.76
335.903	7.08
336.114	5.27
336.325	5.28
336.535	5.08
336.746	2.76
336.957	3.92
337.167	4.6
337.378	4.32
337.589	3.83
337.799	7.16
338.01	4.72
338.22	1
338.431	2.01
338.642	1.26
338.852	1.66
339.063	2.15
339.273	-0.59
339.484	0.31
339.694	-3.07
339.905	-0.86
340.115	-2.83
340.326	-1.66
340.536	0.26
340.746	0.87
340.957	1.29
341.167	3.66
341.378	5.14
341.588	7.85
341.799	6.79
342.009	8.28
342.219	6.24
342.43	8.36
342.64	9.41
342.85	8.97
343.061	11.25
343.271	11.7
343.481	9.08
343.691	7.67
343.902	7.21
344.112	7.91
344.322	7.69
344.532	9.41
344.743	8.42
344.953	5.16
345.163	4.83
345.373	4.51
345.583	2.75
345.793	3.23
346.004	4.33
346.214	3.09
346.424	2.27
346.634	2.68
346.844	1.53
347.054	2.72
347.264	3.19
347.474	2.37
347.684	-0.83
347.894	0.87
348.104	0.6
348.314	1.83
348.524	3.36
348.734	3.63
348.944	3.35
349.154	2.8
349.364	1.58
349.574	3.26
349.784	4.98
349.994	5.24
350.204	3.77
350.413	3.17
350.623	2.94
350.833	2.78
351.043	1.39
351.253	0.89
351.463	2
351.672	-0.69
351.882	-2.08
352.092	-2.67
352.302	-1.64
352.511	-1.66
352.721	-0.03
352.931	-2.14
353.141	-4.03
353.35	-2.09
353.56	-1.83
353.77	-3.35
353.979	0.31
354.189	1.8
354.399	3
354.608	3.74
354.818	4.12
355.027	3.49
355.237	4.13
355.447	8.71
355.656	8.02
355.866	8.51
356.075	9.48
356.285	8.9
356.494	8.49
356.704	5.63
356.913	5.91
357.123	7.44
357.332	8.12
357.542	7.2
357.751	5.06
357.96	5.62
358.17	3.9
358.379	3.57
358.589	3.66
358.798	3.76
359.007	5.21
359.217	6.4
359.426	6.36
359.635	5.82
359.845	6.67
360.054	5.84
360.263	7.06
360.472	7.95
360.682	8.77
360.891	9.46
361.1	9.09
361.309	9.51
361.519	7.55
361.728	6.77
361.937	6.54
362.146	6.87
362.355	6.7
362.564	4.59
362.774	4.81
362.983	3.57
363.192	3.6
363.401	4.16
363.61	4.17
363.819	5.05
364.028	5.49
364.237	4.89
364.446	4.07
364.655	4.1
364.864	3.94
365.073	3.79
365.282	4.89
365.491	4.2
365.7	2.85
365.909	2.27
366.118	1.2
366.327	0.93
366.536	2
366.745	2.94
366.954	2.31
367.162	2.73
367.371	2.09
367.58	0.92
367.789	0.64
367.998	1.94
368.207	1.45
368.415	2.1
368.624	1.47
368.833	2.15
369.042	2.37
369.25	3.84
369.459	4.66
369.668	6.11
369.877	8.09
370.085	8.02
370.294	6.73
370.503	7.1
370.711	7.57
370.92	8.47
371.129	7.71
371.337	7.89
371.546	7.78
371.754	7.83
371.963	7.07
372.171	5.85
372.38	6.31
372.589	5.56
372.797	5.94
373.006	6.09
373.214	5.53
373.423	5.1
373.631	5.67
373.84	4.2
374.048	3.57
374.256	4.74
374.465	4.75
374.673	4.85
374.882	6.23
375.09	6.58
375.298	7.73
375.507	7.33
375.715	7.13
375.923	5.58
376.132	6.76
376.34	6.09
376.548	3.94
376.757	2.77
376.965	3.73
377.173	4.46
377.381	5.28
377.59	4.04
377.798	4.82
378.006	6.02
378.214	5.56
378.423	5.96
378.631	6.54
378.839	7.95
379.047	10.07
379.255	9.47
379.463	8.97
379.671	7.7
379.879	8.03
380.088	7.31
380.296	4.83
380.504	5.91
380.712	4.14
380.92	2.84
381.128	1.87
381.336	-0.04
381.544	-1.4
381.752	-0.6
381.96	0.03
382.168	-0.4
382.376	-0.46
382.584	0.71
382.791	-0.47
382.999	-1.16
383.207	-1.07
383.415	-0.6
383.623	-0.43
383.831	-1.19
384.039	-2.02
384.247	-1.74
384.454	-3.32
384.662	-3.06
384.87	-2.58
385.078	-0.62
385.285	-0.07
385.493	2.28
385.701	2.35
385.909	4.27
386.116	5.21
386.324	4.1
386.532	2.6
386.739	3.86
386.947	3.1
387.155	3.1
387.362	3.05
387.57	3.15
387.778	1.97
387.985	1.69
388.193	0.23
388.4	-0.05
388.608	0.02
388.816	0.7
389.023	-0.27
389.231	1.3
389.438	1.64
389.646	0.83
389.853	1.92
390.061	2.64
390.268	2.25
390.475	2.15
390.683	1.88
390.89	2.89
391.098	3.32
391.305	3.61
391.512	2.24
391.72	1.04
391.927	0.5
392.135	0.16
392.342	0
392.549	0.39
392.756	0.05
392.964	0.45
393.171	-0.59
393.378	-0.65
393.586	-0.14
393.793	-0.23
394	0.28
394.207	0.61
394.414	0.53
394.622	0.02
394.829	0.07
395.036	0.52
395.243	0.82
395.45	1.91
395.657	2.75
395.864	3.15
396.072	4.04
396.279	4.42
396.486	3.9
396.693	4.34
396.9	4.01
397.107	2.96
397.314	2.52
397.521	1.72
397.728	1.99
397.935	0.82
398.142	0.04
398.349	-0.41
398.556	-0.7
398.763	1.47
398.97	1.09
399.177	1.96
399.383	2.48
399.59	2.85
399.797	3.58
400.004	2.25
400.211	1.6
400.418	1.71
400.625	1.77
400.831	1.67
401.038	0.16
401.245	-0.53
401.452	-1.52
401.658	-1.5
401.865	-1.34
402.072	-1.66
402.279	0.06
402.485	0.89
402.692	1.06
402.899	0.58
403.105	0.05
403.312	0.79
403.519	1.65
403.725	2.27
403.932	2.69
404.138	3.56
404.345	4
404.552	2.96
404.758	2.83
404.965	3.15
405.171	3.54
405.378	4.4
405.584	3.92
405.791	3.94
405.997	3.5
406.204	3.89
406.41	3.42
406.617	3.38
406.823	3.3
407.029	2.91
407.236	1.8
407.442	1.76
407.649	2.07
407.855	2.04
408.061	2.51
408.268	2.25
408.474	2.09
408.68	1.22
408.887	1.51
409.093	2.41
409.299	2.68
409.505	3.76
409.712	4.48
409.918	3.86
410.124	3.52
410.33	2.75
410.537	3.21
410.743	2.06
410.949	3.09
411.155	2.07
411.361	1.29
411.567	0.24
411.773	-0.36
411.98	-1.61
412.186	-2.31
412.392	-2.11
412.598	-2.44
412.804	-2.86
413.01	-2.5
413.216	-3.22
413.422	-2.39
413.628	-1.79
413.834	-1.27
414.04	-1.24
414.246	-0.5
414.452	0.55
414.658	0.38
414.864	0.36
415.07	0.65
415.275	1.16
415.481	0.96
415.687	0.84
415.893	0.93
416.099	1.36
416.305	1.56
416.511	1.54
416.716	1.87
416.922	1.68
417.128	1.85
417.334	2.01
417.539	2.33
417.745	2.38
417.951	1.79
418.157	1.69
418.362	1.67
418.568	1.73
418.774	2.07
418.979	1.33
419.185	1.58
419.391	2.12
419.596	1.88
419.802	1.8
420.008	1.71
420.213	0.16
420.419	-0.13
420.624	0.02
420.83	0.37
421.035	0.05
421.241	0.34
421.446	0.57
421.652	0.1
421.857	0.22
422.063	-0.06
422.268	0.1
422.474	1.62
422.679	1.94
422.885	2.11
423.09	1.39
423.295	1.63
423.501	2.09
423.706	2.18
423.911	2.62
424.117	2.75
424.322	2.95
424.527	2.84
424.733	3.52
424.938	3.51
425.143	3.5
425.349	3.91
425.554	3.95
425.759	3.55
425.964	3.27
426.169	2.99
426.375	2.86
426.58	2.73
426.785	3.11
426.99	2.7
427.195	2.46
427.4	2.33
427.605	1.88
427.811	1.73
428.016	1.9
428.221	2.36
428.426	2.56
428.631	2.52
428.836	3.35
429.041	2.99
429.246	2.79
429.451	2.99
429.656	2.69
429.861	3.51
430.066	3.17
430.271	3.17
430.476	2.96
430.681	3.18
430.886	3.38
431.09	3.22
431.295	3.44
431.5	3.93
431.705	3.45
431.91	3.73
432.115	3.67
432.32	3.82
432.524	3.87
432.729	3.65
432.934	3.33
433.139	3.1
433.343	2.68
433.548	2.57
433.753	2.29
433.958	2.98
434.162	2.88
434.367	2.86
434.572	2.84
434.776	3.22
434.981	3.34
435.186	3.37
435.39	3.73
435.595	4.01
435.799	4.09
436.004	4.06
436.209	4.27
436.413	3.47
436.618	2.98
436.822	3.47
437.027	3.45
437.231	3.25
437.436	2.87
437.64	2.93
437.845	2.51
438.049	2.5
438.253	2.92
438.458	2.2
438.662	3.01
438.867	3.41
439.071	2.91
439.275	2.81
439.48	3.07
439.684	3.17
439.888	2.95
440.093	3.53
440.297	3.52
440.501	3.37
440.706	3.59
440.91	3.05
441.114	2.96
441.318	3.21
441.523	2.83
441.727	2.38
441.931	1.86
442.135	1.68
442.339	0.71
442.543	1.03
442.748	0.48
442.952	0.34
443.156	0.92
443.36	0.61
443.564	0.57
443.768	0.89
443.972	1.12
444.176	1.87
444.38	2.07
444.584	2.74
444.788	2.35
444.992	2.77
445.196	2.69
445.4	2.62
445.604	2.89
445.808	2.68
446.012	2.04
446.216	1.85
446.42	2.35
446.624	2.47
446.828	2.19
447.032	2.63
447.235	2.39
447.439	2.46
447.643	2.16
447.847	1.88
448.051	1.78
448.254	1.79
448.458	1.92
448.662	1.08
448.866	0.82
449.069	0.65
449.273	-0.02
449.477	0.23
449.681	0.39
449.884	0.37
450.088	0.3
450.292	0.1
450.495	0.8
450.699	1.14
450.902	0.97
451.106	1.15
451.31	1.18
451.513	1.79
451.717	1.46
451.92	1.37
452.124	1.28
452.327	1.12
452.531	1.44
452.734	1.28
452.938	0.38
453.141	0.83
453.345	0.31
453.548	0.63
453.752	-0.53
453.955	-0.61
454.158	-0.68
454.362	-0.26
454.565	-0.22
454.769	-0.38
454.972	-0.54
455.175	0.32
455.379	0.02
455.582	0.36
455.785	0.16
455.988	0.78
456.192	0.92
456.395	0.98
456.598	1.16
456.801	1.57
457.005	1.64
457.208	1.7
457.411	1.31
457.614	1.67
457.817	1.86
458.021	2
458.224	2.43
458.427	2.55
458.63	2.77
458.833	2.49
459.036	2.14
459.239	2.54
459.442	2.75
459.645	2.88
459.848	2.71
460.051	2.92
460.254	2.85
460.457	2.63
460.66	3.02
460.863	2.78
461.066	3.81
461.269	4.19
461.472	4.29
461.675	4.51
461.878	5.04
462.081	4.79
462.284	4.67
462.486	4.12
462.689	4.18
462.892	3.69
463.095	3.63
463.298	2.57
463.5	2.8
463.703	2.68
463.906	2.11
464.109	1.84
464.311	2.02
464.514	1.5
464.717	2.32
464.92	2.06
465.122	2.03
465.325	2.26
465.528	2.84
465.73	2.25
465.933	2.06
466.135	2.15
466.338	2.27
466.541	2.26
466.743	2.66
466.946	2.3
467.148	2.4
467.351	1.99
467.553	2.22
467.756	1.79
467.958	1.41
468.161	1.11
468.363	1.26
468.566	0.66
468.768	0.9
468.971	0.36
469.173	1.11
469.375	1.47
469.578	1.92
469.78	0.83
469.983	0.54
470.185	1.32
470.387	2.17
470.59	2
470.792	2.23
470.994	1.94
471.196	2.15
471.399	1.46
471.601	1.25
471.803	1.79
472.005	2.27
472.208	2.38
472.41	2.01
472.612	1.21
472.814	1.13
473.016	0.77
473.218	0.64
473.421	0.56
473.623	0.88
473.825	1.14
474.027	0.75
474.229	0.73
474.431	1.07
474.633	1.4
474.835	1.38
475.037	1.95
475.239	2.46
475.441	2.88
475.643	3.11
475.845	2.64
476.047	2.24
476.249	2.43
476.451	2.74
476.653	2.72
476.855	2.87
477.057	2.81
477.258	2.59
477.46	2.24
477.662	1.69
477.864	1.93
478.066	1.95
478.268	2
478.469	1.4
478.671	1.51
478.873	1.34
479.075	0.96
479.276	1.51
479.478	1.38
479.68	1.61
479.882	2.02
480.083	1.29
480.285	1.59
480.487	1.64
480.688	1.93
480.89	1.66
481.091	1.57
481.293	2.05
481.495	1.88
481.696	1.85
481.898	1.86
482.099	1.75
482.301	1.91
482.502	1.82
482.704	1.73
482.905	1.72
483.107	1.78
483.308	1.78
483.51	1.66
483.711	1.65
483.913	1.72
484.114	1.8
484.315	1.94
484.517	1.98
484.718	2.15
484.92	2.21
485.121	2.18
485.322	2.26
485.524	2.34
485.725	2.29
485.926	2.14
486.127	2.03
486.329	1.83
486.53	1.47
486.731	1.5
486.932	1.35
487.134	1.41
487.335	1.46
487.536	1.25
487.737	1.16
487.938	1.24
488.139	1.35
488.341	1.36
488.542	1.55
488.743	1.63
488.944	1.49
489.145	1.64
489.346	1.71
489.547	1.81
489.748	1.96
489.949	2.05
490.15	2.21
490.351	2.26
490.552	2.22
490.753	2
490.954	2.09
491.155	2.33
491.356	2.33
491.557	2.18
491.758	2.01
491.959	2.1
492.159	2.09
492.36	1.95
492.561	1.94
492.762	1.95
492.963	2.08
493.164	1.97
493.364	1.68
493.565	1.52
493.766	1.62
493.967	1.98
494.167	1.73
494.368	1.16
494.569	1.13
494.769	1.01
494.97	1.1
495.171	0.76
495.371	0.99
495.572	1
495.773	0.33
495.973	0.5
496.174	0.57
496.375	0.71
496.575	0.89
496.776	0.83
496.976	1.01
497.177	0.76
497.377	1.24
497.578	1.11
497.778	1.17
497.979	1.81
498.179	1.42
498.38	1.28
498.58	1.37
498.78	1.74
498.981	1.85
499.181	2
499.382	1.96
499.582	1.87
499.782	2.15
499.983	2.29
500.183	2.49
500.383	2.87
500.584	2.88
500.784	3.16
500.984	3.19
501.184	3.33
501.385	3.45
501.585	3.82
501.785	3.81
501.985	3.88
502.185	3.81
502.386	3.44
502.586	3.4
502.786	3.07
502.986	3.09
503.186	2.6
503.386	2.48
503.586	2.18
503.786	2.34
503.987	2.09
504.187	2
504.387	2.29
504.587	2.45
504.787	2.07
504.987	2.33
505.187	2.03
505.387	2.87
505.587	2.73
505.786	2.61
505.986	2.09
506.186	2.36
506.386	2.27
506.586	1.84
506.786	1.75
506.986	1.64
507.186	1.32
507.386	1.44
507.585	0.96
507.785	1.11
507.985	1.25
508.185	1.7
508.384	1.29
508.584	1.58
508.784	1.59
508.984	1.64
509.183	2.01
509.383	2.54
509.583	2.54
509.782	2.85
509.982	2.62
510.182	2.9
510.381	2.64
510.581	2.77
510.781	2.37
510.98	2.66
511.18	2.96
511.379	2.99
511.579	2.89
511.778	2.85
511.978	2.95
512.177	2.83
512.377	2.63
512.576	2.91
512.776	3.29
512.975	3.82
513.175	3.52
513.374	3.57
513.573	3.47
513.773	3.56
513.972	3.53
514.172	3.58
514.371	3.62
514.57	3.17
514.77	3.31
514.969	3.39
515.168	3.28
515.367	3.48
515.567	3.5
515.766	3.56
515.965	3.51
516.164	3.76
516.364	3.89
516.563	4.43
516.762	5.1
516.961	4.85
517.16	4.91
517.359	4.89
517.559	4.98
517.758	4.82
517.957	4.98
518.156	4.91
518.355	4.82
518.554	4.39
518.753	4.29
518.952	4.09
519.151	4.12
519.35	4.09
519.549	4.25
519.748	4.52
519.947	4.7
520.146	4.61
520.345	4.84
520.544	4.81
520.743	5.42
520.942	5.74
521.141	5.72
521.339	5.89
521.538	5.58
521.737	5.37
521.936	5.16
522.135	4.87
522.333	5.29
522.532	5.44
522.731	5.28
522.93	5.13
523.129	5.09
523.327	5.26
523.526	5.51
523.725	5.72
523.923	5.8
524.122	6.03
524.321	6.21
524.519	6.09
524.718	6.16
524.917	6.51
525.115	6.44
525.314	6.33
525.512	6.26
525.711	6.08
525.909	6.42
526.108	6.45
526.306	6.29
526.505	6.37
526.703	6.37
526.902	6.32
527.1	6.26
527.299	6.27
527.497	6.25
527.696	6.28
527.894	6.39
528.092	6.32
528.291	6.39
528.489	6.37
528.688	6.39
528.886	6.64
529.084	6.75
529.283	6.97
529.481	7.2
529.679	7.45
529.877	7.59
530.076	7.69
530.274	7.7
530.472	7.84
530.67	8.31
530.869	8.62
531.067	8.4
531.265	8.58
531.463	8.75
531.661	8.5
531.859	8.54
532.057	8.54
532.255	8.79
532.454	8.97
532.652	9.11
532.85	8.99
533.048	8.9
533.246	8.92
533.444	8.64
533.642	8.33
533.84	8.53
534.038	8.64
534.236	8.7
534.434	8.63
534.632	8.64
534.83	8.58
535.027	8.64
535.225	8.8
535.423	9.09
535.621	9.41
535.819	9.69
536.017	9.84
536.215	9.79
536.412	9.88
536.61	9.93
536.808	9.84
537.006	9.84
537.203	9.69
537.401	9.28
537.599	9.35
537.797	9.11
537.994	9.17
538.192	9.24
538.39	9.61
538.587	9.96
538.785	10.32
538.983	10.34
539.18	10.31
539.378	10.59
539.575	10.94
539.773	11.01
539.97	11
540.168	10.9
540.366	10.89
540.563	10.75
540.761	10.69
540.958	10.83
541.155	10.93
541.353	11.13
541.55	11.33
541.748	11.42
541.945	11.41
542.143	11.73
542.34	11.9
542.537	12.18
542.735	12.27
542.932	12.56
543.129	12.44
543.327	12.67
543.524	12.75
543.721	12.43
543.919	12.54
544.116	12.39
544.313	12.28
544.51	12.11
544.708	11.83
544.905	11.74
545.102	11.62
545.299	11.53
545.496	11.29
545.693	11.32
545.891	11.32
546.088	11.18
546.285	11.51
546.482	11.48
546.679	11.78
546.876	12.28
547.073	12.25
547.27	12.02
547.467	11.9
547.664	12.31
547.861	12.48
548.058	12.87
548.255	12.83
548.452	12.83
548.649	12.98
548.846	12.69
549.043	12.39
549.24	12.75
549.437	13.21
549.633	13.78
549.83	13.41
550.027	13.25
550.224	13.3
550.421	14.04
550.618	13.94
550.814	14.13
551.011	14.89
551.208	15.19
551.405	15.44
551.601	15.1
551.798	14.86
551.995	14.83
552.191	15.08
552.388	15.31
552.585	15.37
552.781	15.52
552.978	15.51
553.175	15.44
553.371	15.35
553.568	15.45
553.764	15.67
553.961	15.8
554.157	16.6
554.354	16.42
554.55	16.55
554.747	16.14
554.943	16.47
555.14	16.53
555.336	16.46
555.533	16.22
555.729	16.06
555.926	16.37
556.122	16.29
556.318	16.28
556.515	16.78
556.711	16.58
556.907	16.56
557.104	16.51
557.3	17.1
557.496	16.83
557.693	16.98
557.889	17.28
558.085	17.6
558.281	18.31
558.478	18.15
558.674	17.89
558.87	17.9
559.066	17.62
559.262	17.35
559.459	16.89
559.655	16.91
559.851	16.97
560.047	16.41
560.243	16.35
560.439	15.81
560.635	16.15
560.831	16.01
561.027	16.56
561.223	16.94
561.419	17.35
561.615	17.49
561.811	18.19
562.007	18.34
562.203	18.16
562.399	17.85
562.595	18.35
562.791	17.84
562.987	17.2
563.183	17.2
563.379	17.9
563.575	17.72
563.771	17.92
563.966	17.77
564.162	17.79
564.358	18.2
564.554	18.93
564.75	18.56
564.945	19.06
565.141	20.06
565.337	19.68
565.533	19.18
565.728	19.21
565.924	19.43
566.12	19.5
566.315	20.43
566.511	20.7
566.707	20.58
566.902	20.81
567.098	21.01
567.293	21.19
567.489	21.48
567.684	21.95
567.88	22.1
568.076	22.26
568.271	22.25
568.467	21.25
568.662	21.63
568.858	21.8
569.053	22.17
569.248	22.41
569.444	21.71
569.639	21.65
569.835	21.34
570.03	21.54
570.225	21.99
570.421	22.23
570.616	22.36
570.812	22.19
571.007	22.12
571.202	22.16
571.397	21.99
571.593	22.24
571.788	22.4
571.983	22.57
572.178	22.97
572.374	21.76
572.569	21.68
572.764	21.58
572.959	21.46
573.154	21.5
573.35	21.55
573.545	21.61
573.74	21.93
573.935	21.79
574.13	22.15
574.325	21.72
574.52	22.73
574.715	22.69
574.91	23.02
575.105	23.29
575.3	23.3
575.495	22.83
575.69	22.46
575.885	22.87
576.08	23.46
576.275	23.22
576.47	23.28
576.665	23.45
576.86	24.14
577.055	23.95
577.25	23.62
577.444	23.66
577.639	23.99
577.834	24.07
578.029	24.18
578.224	24.02
578.418	24.17
578.613	24.17
578.808	23.75
579.003	22.74
579.197	23.3
579.392	24
579.587	24.28
579.781	24.6
579.976	25.57
580.171	25.43
580.365	25.24
580.56	25.2
580.755	25.62
580.949	25.9
581.144	25.93
581.338	25.95
581.533	25.8
581.727	25.29
581.922	25.18
582.116	24.25
582.311	24.08
582.505	24
582.7	24.19
582.894	24.19
583.089	24.14
583.283	24.69
583.478	25.14
583.672	24.86
583.866	25.39
584.061	25.91
584.255	26.52
584.449	27.13
584.644	26.93
584.838	27.69
585.032	27.43
585.226	27.85
585.421	27.82
585.615	27.18
585.809	27.62
586.003	27.65
586.198	27.03
586.392	26.1
586.586	25.65
586.78	26.34
586.974	25.61
587.168	25.82
587.363	25.79
587.557	25.97
587.751	26.24
587.945	26.01
588.139	26.82
588.333	27.3
588.527	28.08
588.721	28.2
588.915	27.62
589.109	27.54
589.303	27.47
589.497	27.1
589.691	27.01
589.885	27.06
590.079	27.35
590.273	26.13
590.466	25.9
590.66	26.53
590.854	26.41
591.048	26.84
591.242	27.36
591.436	27.82
591.629	28.54
591.823	28.58
592.017	29.09
592.211	29.38
592.404	29.37
592.598	29.34
592.792	29.01
592.986	28.77
593.179	29.31
593.373	29.01
593.567	28.98
593.76	27.96
593.954	28.11
594.147	27.07
594.341	26.6
594.535	27
594.728	26.6
594.922	26.65
595.115	26.44
595.309	26.07
595.502	26.19
595.696	25.76
595.889	26.33
596.083	26.82
596.276	27.4
596.47	27.42
596.663	27.78
596.856	28.35
597.05	28.2
597.243	29.04
597.437	29.87
597.63	30.01
597.823	30.37
598.017	30.06
598.21	29.43
598.403	29.62
598.596	29.83
598.79	29.64
598.983	30
599.176	30.2
599.369	29.75
599.563	29.23
599.756	29.43
599.949	29.23
600.142	28.87
600.335	28.58
600.528	28.08
600.722	28.38
600.915	28.1
601.108	28.24
601.301	27.93
601.494	27.93
601.687	27.05
601.88	26.76
602.073	27.42
602.266	28.9
602.459	29.31
602.652	29.53
602.845	29.22
603.038	29.31
603.231	28.98
603.424	29.05
603.617	29.32
603.809	30.19
604.002	30.34
604.195	30.36
604.388	29.59
604.581	29.29
604.774	29.25
604.966	29.48
605.159	29.56
605.352	29.5
605.545	29.28
605.737	29.48
605.93	28.85
606.123	28.4
606.316	28.21
606.508	28.29
606.701	29.6
606.894	29.4
607.086	28.88
607.279	28.7
607.471	28.87
607.664	29.35
607.857	28.94
608.049	29.36
608.242	29.66
608.434	29.75
608.627	29.85
608.819	28.68
609.012	28.8
609.204	29.16
609.397	28.78
609.589	28.37
609.782	28.44
609.974	28.5
610.166	28.01
610.359	28.29
610.551	28.49
610.743	28.41
610.936	29.19
611.128	29.37
611.32	29.69
611.513	29.88
611.705	30.06
611.897	30.6
612.09	30.43
612.282	30.94
612.474	30.64
612.666	30.62
612.858	31.41
613.051	31.2
613.243	31.16
613.435	30.61
613.627	31.47
613.819	31.74
614.011	31.12
614.203	31.1
614.395	31.09
614.588	30.92
614.78	30.72
614.972	30.96
615.164	31.22
615.356	31.75
615.548	31.71
615.74	32.07
615.932	31.68
616.124	31.77
616.315	32.55
616.507	31.89
616.699	31.87
616.891	31.49
617.083	30.13
617.275	29.97
617.467	29.46
617.659	30.52
617.85	30.44
618.042	30.7
618.234	31.23
618.426	31.19
618.618	32.25
618.809	32.85
619.001	33.27
619.193	33.62
619.384	33.47
619.576	33.74
619.768	32.39
619.959	32.38
620.151	32.77
620.343	32.82
620.534	32.82
620.726	32.37
620.917	32.54
621.109	32.38
621.301	32.87
621.492	32.25
621.684	32.79
621.875	34.22
622.067	33.8
622.258	33.89
622.45	33.35
622.641	33.44
622.832	34.3
623.024	34.14
623.215	33.92
623.407	33.22
623.598	34.56
623.789	33.19
623.981	33.44
624.172	33.2
624.363	33.43
624.555	32.84
624.746	32.52
624.937	31.42
625.129	30.94
625.32	31.05
625.511	30.53
625.702	29.94
625.893	29.92
626.085	28.85
626.276	29.31
626.467	28.8
626.658	29.08
626.849	29.28
627.04	29.21
627.231	29.74
627.422	29
627.614	29.93
627.805	29.64
627.996	30.1
628.187	31.17
628.378	30.75
628.569	30.14
628.76	30.45
628.951	30.5
629.142	31.3
629.332	30.91
629.523	31.12
629.714	31.64
629.905	32.13
630.096	32.03
630.287	31.5
630.478	32
630.669	32.73
630.859	32.27
631.05	32.49
631.241	32.8
631.432	32.74
631.623	32.57
631.813	32.53
632.004	31.51
632.195	32.11
632.385	31.49
632.576	31.65
632.767	32.29
632.957	32.92
633.148	31.92
633.339	31.45
633.529	32.35
633.72	33.29
633.91	32.73
634.101	33.63
634.292	34.18
634.482	34.31
634.673	33.18
634.863	32.52
635.054	32.76
635.244	33.98
635.435	33.94
635.625	33.16
635.815	32.47
636.006	33.32
636.196	33.92
636.387	33.49
636.577	33.67
636.767	34.56
636.958	34.41
637.148	33.44
637.338	33.28
637.529	32.82
637.719	33.41
637.909	33.91
638.099	32.87
638.29	32.43
638.48	32.18
638.67	32.92
638.86	32.77
639.05	32.26
639.241	32.42
639.431	31.31
639.621	31.64
639.811	31.64
640.001	30.73
640.191	31.22
640.381	30.9
640.571	31.28
640.761	30.33
640.951	31.17
641.141	31.98
641.331	32.09
641.521	31.97
641.711	32.64
641.901	31.72
642.091	33.05
642.281	32
642.471	32.01
642.661	32.46
642.851	32.83
643.041	33.1
643.231	33.11
643.42	35.04
643.61	35.86
643.8	35.43
643.99	36.08
644.18	35.89
644.369	37.22
644.559	37.47
644.749	36.62
644.939	35.14
645.128	33.81
645.318	33.41
645.508	31.37
645.697	30.66
645.887	30.81
646.076	30.33
646.266	30.36
646.456	30.5
646.645	30.74
646.835	31.14
647.024	32.5
647.214	32.1
647.403	33.08
647.593	33.65
647.782	34.86
647.972	34.18
648.161	34.93
648.351	35.09
648.54	34.51
648.73	34.9
648.919	35.1
649.108	35.97
649.298	36.72
649.487	36.25
649.677	36.23
649.866	35.31
650.055	35.96
650.244	35.83
650.434	36.46
650.623	36.59
650.812	36.44
651.002	35.73
651.191	35.57
651.38	36.16
651.569	36.68
651.758	36.27
651.947	36
652.137	36.54
652.326	36.7
652.515	35.81
652.704	35.73
652.893	35.73
653.082	36.91
653.271	36.82
653.46	36.26
653.649	36.75
653.838	36.81
654.027	37.91
654.216	36.58
654.405	36.52
654.594	37.15
654.783	36.34
654.972	35.68
655.161	35.52
655.35	35.73
655.539	35.77
655.728	35.07
655.916	35.97
656.105	35.63
656.294	36.28
656.483	35.78
656.672	34.59
656.86	35.72
657.049	35.72
657.238	35.8
657.427	36.26
657.615	36.32
657.804	35.68
657.993	34.49
658.181	34.66
658.37	33.56
658.559	33.48
658.747	33.65
658.936	32.59
659.125	31.28
659.313	30.73
659.502	29.72
659.69	30.44
659.879	30.22
660.067	31.25
660.256	31.33
660.444	32.13
660.633	32.66
660.821	33.15
661.01	34.16
661.198	36.68
661.387	36.22
661.575	36.78
661.763	36.36
661.952	36.75
662.14	36.66
662.328	36.25
662.517	37.26
662.705	37.63
662.893	37.71
663.082	37.53
663.27	36.36
663.458	36.16
663.646	36.57
663.834	35.86
664.023	35.32
664.211	34.69
664.399	34.6
664.587	34.29
664.775	33.45
664.963	33.38
665.152	33.75
665.34	34.1
665.528	33.94
665.716	33.38
665.904	33.61
666.092	34.59
666.28	36.25
666.468	35.89
666.656	35.74
666.844	35.6
667.032	35.71
667.22	35.74
667.408	36.17
667.596	36.09
667.784	35.28
667.971	35.9
668.159	36.46
668.347	35.26
668.535	36.62
668.723	36.4
668.911	36.84
669.098	37.39
669.286	38.31
669.474	37.73
669.662	38.46
669.849	38.39
670.037	38.15
670.225	39.09
670.413	39.75
670.6	39
670.788	39.47
670.976	38.81
671.163	38.13
671.351	37.93
671.538	37.81
671.726	37.88
671.913	39.01
672.101	38.56
672.289	36.88
672.476	35.87
672.664	36.39
672.851	35.97
673.039	36.93
673.226	37.69
673.413	36.79
673.601	37.42
673.788	36.97
673.976	37.07
674.163	38.55
674.35	38.4
674.538	38.97
674.725	39.18
674.912	40.91
675.1	41.75
675.287	41.84
675.474	42.38
675.662	42.33
675.849	42.72
676.036	42.66
676.223	41.45
676.411	41.48
676.598	42.12
676.785	42.32
676.972	39.46
677.159	39.76
677.346	38.5
677.533	37.08
677.721	36.83
677.908	37.46
678.095	38.04
678.282	36.65
678.469	36.39
678.656	35.32
678.843	34.61
679.03	36.3
679.217	35.25
679.404	35.26
679.591	35.56
679.778	35.24
679.964	35.06
680.151	34.23
680.338	35.31
680.525	34.96
680.712	34.88
680.899	34.52
681.086	34.36
681.272	35.32
681.459	36.01
681.646	36.69
681.833	36.56
682.02	36.98
682.206	37.16
682.393	37.36
682.58	38.46
682.766	39.2
682.953	39.11
683.14	39.07
683.326	38.45
683.513	38.47
683.7	37.93
683.886	40.8
684.073	40.43
684.259	39.28
684.446	39.7
684.632	39.78
684.819	40.49
685.005	41.23
685.192	41.71
685.378	42.52
685.565	43.93
685.751	45.01
685.938	43.96
686.124	44.03
686.31	44.58
686.497	43.8
686.683	44.07
686.87	42.79
687.056	42.58
687.242	41.99
687.429	41.21
687.615	38.9
687.801	38.98
687.987	39.18
688.174	38.85
688.36	39.14
688.546	39.45
688.732	38.81
688.918	38.2
689.105	38.7
689.291	38.63
689.477	37.6
689.663	37.85
689.849	37.48
690.035	36.22
690.221	36.55
690.407	35.93
690.593	33.99
690.779	34.84
690.965	36.12
691.151	34.96
691.337	35.98
691.523	38.06
691.709	38.74
691.895	37.62
692.081	38.27
692.267	39.21
692.453	40.93
692.639	43.95
692.825	43.73
693.011	44.77
693.196	45.47
693.382	43.84
693.568	42.03
693.754	42.32
693.94	42.87
694.125	41.96
694.311	41.11
694.497	40.97
694.682	40.94
694.868	39.44
695.054	38.74
695.239	39.87
695.425	40.81
695.611	39.93
695.796	40.01
695.982	38.89
696.168	39.03
696.353	38.7
696.539	37.7
696.724	36.67
696.91	37.52
697.095	36.94
697.281	36.59
697.466	35.84
697.652	36.69
697.837	36.74
698.023	37.03
698.208	37.28
698.393	37.35
698.579	37.69
698.764	37.9
698.949	37.98
699.135	38.66
699.32	39.12
699.505	40.17
699.691	40.43
699.876	39.97
700.061	40.51
700.246	41.27
700.432	42.2
700.617	42.98
700.802	43.6
700.987	44.73
701.172	45.22
701.358	44.54
701.543	46.05
701.728	45.78
701.913	46.19
702.098	46.99
702.283	45.25
702.468	43.68
702.653	42.47
702.838	41.44
703.023	40.62
703.208	38.96
703.393	37.68
703.578	35.89
703.763	35.72
703.948	36.51
704.133	36.8
704.318	37.23
704.503	39.14
704.688	38.89
704.873	40.73
705.057	41.28
705.242	42.64
705.427	43.7
705.612	42.77
705.797	44.32
705.981	43.21
706.166	42.88
706.351	42.04
706.536	40.96
706.72	40.71
706.905	36.81
707.09	36.98
707.274	37.99
707.459	38.81
707.644	38.18
707.828	36.64
708.013	37.17
708.197	36.79
708.382	37.95
708.567	38.51
708.751	38.58
708.936	42.06
709.12	40.21
709.305	39.49
709.489	37.5
709.673	35.82
709.858	36.67
710.042	38.58
710.227	39.62
710.411	40.77
710.596	40.44
710.78	41.7
710.964	41.2
711.149	42.79
711.333	41.63
711.517	43.02
711.702	44.68
711.886	43.93
712.07	41.54
712.254	40.84
712.438	39.59
712.623	39.15
712.807	38.33
712.991	36.58
713.175	35.63
713.359	35.83
713.544	36.1
713.728	37.05
713.912	37.3
714.096	39.62
714.28	39.73
714.464	39.83
714.648	40.23
714.832	41.1
715.016	41.94
715.2	41.46
715.384	41.49
715.568	41.13
715.752	41.99
715.936	43.64
716.12	41.37
716.304	41.48
716.488	42.43
716.671	41.64
716.855	41.93
717.039	42
717.223	43.53
717.407	43.93
717.59	45.12
717.774	43.23
717.958	41.73
718.142	42.81
718.325	43.54
718.509	40.47
718.693	42.93
718.877	40.69
719.06	41.37
719.244	40.54
719.428	40.76
719.611	40.4
719.795	42.35
719.978	44.1
720.162	43.53
720.345	40.63
720.529	41.72
720.713	37.87
720.896	40.84
721.08	42.1
721.263	42.2
721.446	42.99
721.63	41.9
721.813	43.32
721.997	44.49
722.18	45.07
722.364	47.19
722.547	47.43
722.73	49.53
722.914	48.32
723.097	45.89
723.28	45.16
723.464	44.4
723.647	43.6
723.83	41.8
724.013	38.3
724.197	39.36
724.38	39.13
724.563	41.03
724.746	39.56
724.929	37.96
725.112	40.04
725.296	40.25
725.479	40.14
725.662	40.33
725.845	40.01
726.028	40.19
726.211	39.84
726.394	38.62
726.577	39.25
726.76	39.98
726.943	39.96
727.126	39.27
727.309	40.65
727.492	41.32
727.675	42.38
727.858	43.17
728.041	43.55
728.224	42.56
728.407	46.07
728.589	46.52
728.772	46.88
728.955	47.96
729.138	48.23
729.321	48.18
729.503	49.25
729.686	49.09
729.869	48.81
730.052	49.56
730.234	49.13
730.417	47.7
730.6	45.05
730.782	44.11
730.965	44.64
731.148	45.1
731.33	46.42
731.513	44.76
731.695	41.62
731.878	39.65
732.061	40.37
732.243	41.04
732.426	39.82
732.608	41.46
732.791	42.11
732.973	41.79
733.156	39.12
733.338	37.21
733.52	37.72
733.703	39.45
733.885	39.87
734.068	39.25
734.25	37.91
734.432	38.47
734.615	39.62
734.797	38
734.979	37.31
735.162	39.56
735.344	39.99
735.526	37.7
735.708	39.32
735.891	40.59
736.073	39.81
736.255	39.81
736.437	42.24
736.619	40.03
736.802	41.87
736.984	43.61
737.166	41.94
737.348	43.68
737.53	47.3
737.712	47.85
737.894	48.38
738.076	48.44
738.258	49.96
738.44	48.89
738.622	48.82
738.804	45.58
738.986	44.17
739.168	46.03
739.35	45.21
739.532	43.55
739.714	44.24
739.896	43.82
740.078	44.61
740.259	43.75
740.441	42.29
740.623	41.76
740.805	44.96
740.987	47.87
741.168	47.2
741.35	46.12
741.532	46.5
741.714	44.71
741.895	47.09
742.077	46.81
742.259	48.62
742.44	49.33
742.622	49.75
742.804	49.74
742.985	46.09
743.167	47.14
743.348	46.44
743.53	48.97
743.711	48.11
743.893	44.73
744.075	45.48
744.256	45.65
744.438	43.54
744.619	44.81
744.8	45.78
744.982	50.55
745.163	48.49
745.345	50.11
745.526	47.31
745.707	48.41
745.889	46.43
746.07	49.39
746.252	50.16
746.433	53.96
746.614	54
746.795	51.27
746.977	48.64
747.158	51.91
747.339	50.82
747.52	51.26
747.702	50.02
747.883	53.67
748.064	46.33
748.245	43.86
748.426	41.58
748.607	41.16
748.788	43.49
748.97	44.73
749.151	43.9
749.332	43.97
749.513	42.01
749.694	42.78
749.875	40.89
750.056	42.26
750.237	43.8
750.418	47.04
750.599	48.34
750.78	47.96
750.96	48.62
751.141	48.52
751.322	48.4
751.503	47.85
751.684	43.82
751.865	44.49
752.046	45.57
752.226	43.93
752.407	40.45
752.588	41.08
752.769	41.38
752.949	34.59
753.13	34.48
753.311	33.08
753.492	34.88
753.672	39.74
753.853	41.28
754.034	40.17
754.214	42.21
754.395	41.71
754.575	40.49
754.756	38.26
754.937	44.39
755.117	45.29
755.298	47.68
755.478	49.58
755.659	49.78
755.839	52.47
756.02	53.36
756.2	51.57
756.381	53.54
756.561	54.04
756.741	54.73
756.922	50.97
757.102	47.72
757.283	45.4
757.463	43.72
757.643	43.24
757.823	38.47
758.004	37.42
758.184	40.3
758.364	39.92
758.545	39.9
758.725	40.69
758.905	41.71
759.085	43.09
759.265	43.12
759.446	43.68
759.626	45.39
759.806	50.25
759.986	51.33
760.166	47.75
760.346	48.13
760.526	45.18
760.706	45.61
760.886	45.16
761.066	49.56
761.246	50.35
761.426	50.38
761.606	48.79
761.786	47.15
761.966	47.34
762.146	45.85
762.326	43.89
762.506	44.39
762.686	44.41
762.866	44.21
763.046	39.68
763.225	38.55
763.405	38.49
763.585	38.03
763.765	35.68
763.945	36.44
764.124	37.33
764.304	39.74
764.484	40.45
764.664	39.18
764.843	36.91
765.023	38.97
765.203	40.18
765.382	38.33
765.562	38.76
765.741	40.29
765.921	39.41
766.101	40.91
766.28	39.74
766.46	40.24
766.639	39.53
766.819	43.82
766.998	44.38
767.178	45.5
767.357	46.69
767.537	43.57
767.716	44.85
767.896	43.53
768.075	43.32
768.254	43.85
768.434	42.52
768.613	42.76
768.792	39.89
768.972	37.91
769.151	35.23
769.33	36.32
769.51	37.68
769.689	36.9
769.868	38.66
770.047	33.73
770.226	32.68
770.406	31.92
770.585	36.42
770.764	38.62
770.943	38.84
771.122	40.81
771.301	40.11
771.48	39.11
771.66	39.88
771.839	42
772.018	44.48
772.197	45.4
772.376	48.02
772.555	41.62
772.734	42.94
772.913	40.77
773.092	42.36
773.271	43.53
773.449	47.03
773.628	43.64
773.807	41.84
773.986	43.45
774.165	42.78
774.344	41.34
774.523	45.19
774.701	44.53
774.88	45.42
775.059	45.98
775.238	45.19
775.417	45.02
775.595	49.07
775.774	47.78
775.953	50.28
776.131	52.61
776.31	55.6
776.489	54.15
776.667	55.3
776.846	59.17
777.025	61.86
777.203	64.82
777.382	63.14
777.56	66.35
777.739	67.39
777.917	67.23
778.096	64.33
778.274	62.11
778.453	63.24
778.631	59.57
778.81	56.73
778.988	51.1
779.166	50.81
779.345	51.66
779.523	45.84
779.702	41.29
779.88	39.32
780.058	38.92
780.237	40.29
780.415	42.5
780.593	45.11
780.771	40.8
780.95	43.53
781.128	39.86
781.306	46.06
781.484	46.91
781.662	54.8
781.841	56.56
782.019	53.58
782.197	49.43
782.375	47.37
782.553	46.02
782.731	49.59
782.909	48.21
783.087	54.58
783.265	53.98
783.443	57.9
783.621	55.43
783.799	55.62
783.977	56.83
784.155	58.51
784.333	59.97
784.511	64.73
784.689	68.16
784.867	71.07
785.045	64.09
785.223	60.27
785.4	58.65
785.578	59.05
785.756	54.86
785.934	58.4
786.112	54.23
786.289	53.92
786.467	49.86
786.645	49.06
786.823	48.31
787	46.88
787.178	47.42
787.356	47.73
787.533	45.88
787.711	48.93
787.889	45.76
788.066	47.64
788.244	47.03
788.421	46.98
788.599	48.17
788.776	48.28
788.954	50.49
789.131	51.39
789.309	50.85
789.486	50.94
789.664	49.21
789.841	49.72
790.019	55.01
790.196	53.09
790.373	53.28
790.551	52.27
790.728	49.33
790.906	47.19
791.083	44.18
791.26	44.39
791.437	47.22
791.615	52.45
791.792	56.44
791.969	54.81
792.146	56.83
792.324	57.88
792.501	56.56
792.678	57.09
792.855	59.49
793.032	64.49
793.209	61.35
793.387	60.49
793.564	59.45
793.741	48.28
793.918	49.44
794.095	49.33
794.272	52.85
794.449	56.74
794.626	56.04
794.803	57.52
794.98	58.68
795.157	59.29
795.334	58.83
795.511	57.53
795.688	58.91
795.864	55.56
796.041	51.81
796.218	47.03
796.395	45.17
796.572	46.85
796.749	46.77
796.925	44.83
797.102	46.53
797.279	48.3
797.456	44.71
797.632	48.72
797.809	52.82
797.986	52.08
798.162	52.64
798.339	55.75
798.516	57.56
798.692	54.23
798.869	51.08
799.046	50.95
799.222	53.17
799.399	53.92
799.575	55.26
799.752	56.84
799.928	60.57
800.105	62.81
800.281	56.94
800.458	60.84
800.634	66.17
800.811	66.4
800.987	67.23
801.163	65.94
801.34	64.6
801.516	61.37
801.692	54.01
801.869	52.76
802.045	47.7
802.221	53.91
802.398	49.26
802.574	47.9
802.75	46.61
802.926	42.99
803.103	39.1
803.279	45.3
803.455	49.55
803.631	48.18
803.807	47.6
803.983	49.31
804.16	39.04
804.336	35.89
804.512	27.94
804.688	29.16
804.864	32.76
805.04	34.49
805.216	40.95
805.392	32.15
805.568	37.34
805.744	39.91
805.92	42.31
806.096	49.54
806.272	42.24
806.448	44.83
806.623	43.09
806.799	43.78
806.975	44.28
807.151	37.05
807.327	39.76
807.503	46.08
807.678	45.56
807.854	44.62
808.03	42.26
808.206	50.02
808.381	52.2
808.557	50.63
808.733	52.65
808.908	55.67
809.084	50.63
809.26	51.86
809.435	46.19
809.611	51.05
809.787	47.99
809.962	46.97
810.138	44.61
810.313	54.62
810.489	58.7
810.664	55.64
810.84	57.69
811.015	62.79
811.191	63.21
811.366	68.66
811.542	64.05
811.717	71.24
811.892	71.37
812.068	76.24
812.243	68.04
812.419	62.7
812.594	62.76
812.769	56.75
812.944	52.84
813.12	51.46
813.295	46.07
813.47	48.55
813.645	42.18
813.821	44.97
813.996	42.37
814.171	42.91
814.346	46.8
814.521	46.96
814.697	44.59
814.872	46.07
815.047	43.91
815.222	43.95
815.397	44.69
815.572	49.22
815.747	48.88
815.922	52.63
816.097	49.4
816.272	49.11
816.447	52.17
816.622	54.69
816.797	59.45
816.972	60
817.147	61.35
817.322	63.73
817.496	59.89
817.671	60.26
817.846	59.5
818.021	58.59
818.196	65.32
818.371	57.71
818.545	50.29
818.72	44.19
818.895	47.1
819.069	45.59
819.244	46.4
819.419	47.39
819.594	44.55
819.768	44.69
819.943	42.6
820.117	40.34
820.292	42.47
820.467	43.97
820.641	41.58
820.816	40.9
820.99	40.12
821.165	38.82
821.339	36.86
821.514	36.58
821.688	36.1
821.863	35.99
822.037	36.31
822.212	36.45
822.386	36.47
822.56	37.57
822.735	36.99
822.909	37.19
823.084	37.15
823.258	37.73
823.432	38.79
823.606	39.25
823.781	39.42
823.955	38.91
824.129	38.94
824.303	39.75
824.478	39.75
824.652	41.27
824.826	41.24
825	40.56
825.174	39.74
825.348	40.27
825.523	39.57
825.697	39.8
825.871	39.27
826.045	37.23
826.219	35.42
826.393	35.87
826.567	33.91
826.741	34.97
826.915	35.86
827.089	37.51
827.263	36.2
827.437	37.22
827.611	37.96
827.784	39.18
827.958	41.81
828.132	42.41
828.306	40.16
828.48	41
828.654	39.94
828.827	40.19
829.001	40.87
829.175	43.04
829.349	43.55
829.522	45.16
829.696	48.78
829.87	46.76
830.044	50.82
830.217	55.19
830.391	55.78
830.565	56.59
830.738	59.39
830.912	58.92
831.085	61.75
831.259	63.27
831.432	64.99
831.606	59.46
831.779	58.87
831.953	54.49
832.126	56.11
832.3	57.97
832.473	54.53
832.647	47.92
832.82	49.56
832.994	44.84
833.167	45.41
833.34	42.79
833.514	44.75
833.687	46.08
833.86	45.68
834.034	42.86
834.207	41.77
834.38	43.65
834.553	45.28
834.727	47.97
834.9	49.07
835.073	47.25
835.246	46.24
835.419	42.45
835.593	35.97
835.766	35.36
835.939	40.73
836.112	38.71
836.285	35.55
836.458	44.21
836.631	43.44
836.804	44.92
836.977	43.86
837.15	42.37
837.323	48.08
837.496	52.89
837.669	63.15
837.842	57.52
838.015	57.04
838.188	59.91
838.361	52.63
838.533	39.15
838.706	38.6
838.879	36.66
839.052	48.22
839.225	39.54
839.398	36.97
839.57	29.48
839.743	25.51
839.916	31.45
840.088	25.91
840.261	29.01
840.434	39.42
840.607	32.03
840.779	26.54
840.952	21.28
841.124	27.21
841.297	28.73
841.47	27.95
841.642	30.73
841.815	32.68
841.987	43.05
842.16	46.55
842.332	45.92
842.505	56.77
842.677	76.2
842.85	80.32
843.022	74.83
843.194	74.69
843.367	78.43
843.539	87.57
843.712	80.56
843.884	87.27
844.056	69.2
844.229	65.6
844.401	49.72
844.573	44.09
844.745	42.98
844.918	32.92
845.09	31.86
845.262	-5.95
845.434	-29.7
845.606	-32.95
845.779	-25.11
845.951	-70.3
846.123	-63.37
846.295	-5.62
846.467	-1.51
846.639	32.47
846.811	28.26
846.983	46.11
847.155	75.11
847.327	81.62
847.499	86.47
847.671	88.52
847.843	81.27
848.015	78.93
848.187	69.97
848.359	73.59
848.531	61.15
848.703	65.15
848.875	52.52
849.047	53.53
849.218	53.83
849.39	56.56
849.562	57.22
849.734	66.5
849.905	74.3
850.077	53.15
850.249	54.94
850.421	54.04
850.592	49.77
850.764	55.9
850.936	51.21
851.107	62.37
851.279	60.88
851.451	57.08
851.622	52.63
851.794	47.04
851.965	72.65
852.137	75.83
852.308	69.95
852.48	97.86
852.651	94.69
852.823	79.55
852.994	55.07
853.166	55.31
853.337	43.06
853.509	36.87
853.68	40.15
853.851	47.64
854.023	43.06
854.194	43.23
854.365	18.85
854.537	21.88
854.708	29.58
854.879	48.02
855.05	54.17
855.222	70.38
855.393	67.7
855.564	52.6
855.735	54.01
855.906	47.73
856.078	41.44
856.249	50.97
856.42	53.78
856.591	55.4
856.762	54.79
856.933	44.76
857.104	52.88
857.275	57.12
857.446	66.38
857.617	57.71
857.788	68.08
857.959	54.22
858.13	51.98
858.301	53.02
858.472	57
858.643	43.9
858.814	47.89
858.985	23.74
859.155	46.03
859.326	41.14
859.497	35.41
859.668	41.38
859.839	47.85
860.009	40.77
860.18	51.73
860.351	57.21
860.522	62.62
860.692	60.9
860.863	73.13
861.034	48.85
861.204	46.63
861.375	65.63
861.546	57.48
861.716	65.07
861.887	68.16
862.057	54.42
862.228	53.57
862.398	54.2
862.569	51.49
862.739	36.88
862.91	43.71
863.08	46.61
863.251	31.64
863.421	28.81
863.592	14.48
863.762	2.92
863.932	5.44
864.103	-1.77
864.273	-5.63
864.443	2.53
864.614	38.89
864.784	49.89
864.954	49.22
865.125	43.56
865.295	41.39
865.465	37.48
865.635	28.47
865.805	5.44
865.976	-4.36
866.146	-4.75
866.316	-16.01
866.486	-28.96
866.656	-30.45
866.826	-26.58
866.996	-25.57
867.166	-19.82
867.336	-14.17
867.506	4.21
867.676	39.64
867.846	58.03
868.016	89.49
868.186	75.86
868.356	77.05
868.526	77.04
868.696	93.25
868.866	82.51
869.036	79.14
869.206	87.12
869.376	73.87
869.545	106.08
869.715	42.54
869.885	-115.54
870.055	-365.91
870.224	561.33
870.394	187
870.564	154.8
870.734	238.74
870.903	-137.42
871.073	-63.13
871.243	-2.89
871.412	35.96
871.582	41.71
871.751	68.97
871.921	68.73
872.091	84.03
872.26	80.87
872.43	76.16
872.599	91.99
872.769	99.05
872.938	94.57
873.108	104.73
873.277	98.71
873.446	91.43
873.616	106.63
873.785	111.27
873.955	97.94
874.124	121.37
874.293	126.99
874.463	91.42
874.632	85.01
874.801	75.37
874.971	54.34
875.14	48.28
875.309	59.03
875.478	45.66
875.647	55.63
875.817	43.02
875.986	49.07
876.155	61.46
876.324	53.66
876.493	70.44
876.662	70.98
876.831	82.68
877	58.71
877.17	68.41
877.339	60.91
877.508	39.63
877.677	53.3
877.846	33.43
878.015	29.2
878.184	39.57
878.352	46.59
878.521	41.83
878.69	32.98
878.859	57.97
879.028	65.4
879.197	67.75
879.366	74
879.534	75.7
879.703	65.72
879.872	63.21
880.041	61.33
880.21	47.24
880.378	50.83
880.547	53.76
880.716	43.56
880.884	37.45
881.053	35.73
881.222	36
881.39	34.62
881.559	41.19
881.727	37.58
881.896	36.37
882.065	35.21
882.233	32.58
882.402	31.26
882.57	31.94
882.739	31.74
882.907	31.06
883.076	32.1
883.244	31.08
883.412	27.65
883.581	28.71
883.749	27.07
883.918	28.39
884.086	29.69
884.254	27.27
884.423	32.02
884.591	32.69
884.759	35.55
884.927	35.45
885.096	32.58
885.264	37.93
885.432	32.1
885.6	36.11
885.769	44.04
885.937	49.52
886.105	63.61
886.273	54.38
886.441	45.8
886.609	40.56
886.777	55.05
886.945	59.33
887.113	60.98
887.281	88.41
887.449	99
887.617	92.07
887.785	106.51
887.953	92.5
888.121	104.65
888.289	157.87
888.457	130.75
888.625	99.92
888.793	91.34
888.961	83.07
889.129	80.76
889.296	62.13
889.464	46.16
889.632	25.7
889.8	36.01
889.967	31.87
890.135	-22.47
