Data from JASIL_3101_Relative_1.txt Node
Date: Thu Nov 12 19:28:34 EST 2015
User: Geneva
Spectrometer: USB4E03002
Autoset integration time: false
Trigger mode: 4
Integration Time (sec): 1.000000E-1
Scans to average: 10
Electric dark correction enabled: true
Nonlinearity correction enabled: false
Boxcar width: 5
Stray light correction enabled: false
XAxis mode: Wavelengths
Stop averaging: false
Number of Pixels in Spectrum: 3648
>>>>>Begin Spectral Data<<<<<
177.575	213.42
177.794	480.91
178.014	173.84
178.233	155.95
178.452	145.96
178.672	90.93
178.891	494.37
179.11	197.64
179.33	3536.31
179.549	-347.37
179.768	-805.69
179.987	3106.32
180.207	-634.88
180.426	-2090.34
180.645	9273.33
180.864	-248.7
181.084	-352.81
181.303	-198.84
181.522	-281.44
181.741	-4170.83
181.96	325.89
182.179	1491.95
182.398	-159.11
182.618	-1303.99
182.837	-977.88
183.056	469.79
183.275	133.98
183.494	193.01
183.713	181.16
183.932	6.57
184.151	-7.85
184.37	-52.7
184.589	-8.92
184.808	16.27
185.027	-542.84
185.246	-157.43
185.465	-146.58
185.684	-157.58
185.903	1.31
186.122	5.33
186.341	-119.04
186.56	-23.44
186.779	160.08
186.998	87.27
187.216	77.07
187.435	78.61
187.654	40.08
187.873	54.42
188.092	24.18
188.311	25.98
188.53	47.24
188.748	24.13
188.967	40.65
189.186	18.12
189.405	-13.15
189.623	-124.91
189.842	733.08
190.061	-3307.59
190.28	280.24
190.498	62.83
190.717	78.59
190.936	50.26
191.154	74.16
191.373	98.84
191.592	92.47
191.81	94.47
192.029	125.48
192.248	118.91
192.466	130.38
192.685	187.84
192.904	151.32
193.122	131
193.341	236.01
193.559	-475.25
193.778	277.24
193.996	271.56
194.215	126.26
194.433	45.36
194.652	310.18
194.87	55.37
195.089	113.72
195.307	6.6
195.526	-3.75
195.744	-76.81
195.963	-431.06
196.181	2002.35
196.399	-111.85
196.618	-277.43
196.836	-217.25
197.055	-29.06
197.273	8.27
197.491	25.93
197.71	-1198.89
197.928	37.31
198.146	61.52
198.365	-14.39
198.583	-1535.34
198.801	32.01
199.019	-142.99
199.238	-59.78
199.456	9.96
199.674	30.51
199.892	52.19
200.111	80.89
200.329	-8.19
200.547	19.4
200.765	13.96
200.983	48.66
201.202	35.03
201.42	-42.8
201.638	-13.3
201.856	-17.27
202.074	6.45
202.292	45.75
202.51	143.66
202.728	96.84
202.946	74.8
203.165	78.29
203.383	90.05
203.601	97.63
203.819	104.51
204.037	163.5
204.255	103.57
204.473	76.21
204.691	94.13
204.909	167.56
205.127	166.6
205.345	416.16
205.562	-2244.81
205.78	-409.26
205.998	-333.42
206.216	-1646.67
206.434	395.29
206.652	-4175.29
206.87	-405.23
207.088	-210.75
207.306	-957.81
207.523	-174.68
207.741	-382.59
207.959	3764.48
208.177	35880
208.395	-550.06
208.612	-847.05
208.83	-202.87
209.048	-114.03
209.266	-389.61
209.483	-156.37
209.701	-7.41
209.919	-209.21
210.136	-154.9
210.354	-103.7
210.572	81.55
210.79	348.14
211.007	-93.25
211.225	113.28
211.442	145.47
211.66	969.77
211.878	9.74
212.095	-383.32
212.313	-763.82
212.53	-550.21
212.748	-543.34
212.966	-240.77
213.183	-148.62
213.401	-208.81
213.618	-317.58
213.836	-453.34
214.053	-458.34
214.271	-317.38
214.488	434.06
214.705	237.7
214.923	-2500.69
215.14	3079.61
215.358	-113.18
215.575	-60.87
215.793	-64.34
216.01	-42.14
216.227	-9774.07
216.445	-532.28
216.662	-88.84
216.879	-5224.53
217.097	-20.24
217.314	395.92
217.531	-968.14
217.749	221.22
217.966	308.62
218.183	1181.14
218.4	241.74
218.618	296.99
218.835	108.95
219.052	78.36
219.269	66.91
219.487	74.67
219.704	75.29
219.921	50.51
220.138	40.22
220.355	4.21
220.572	13.23
220.79	58.09
221.007	76.35
221.224	-21.2
221.441	30.18
221.658	31.64
221.875	33.82
222.092	81.66
222.309	83.35
222.526	48.83
222.743	53.26
222.96	77.83
223.177	112.59
223.394	110.21
223.611	186.36
223.828	161.58
224.045	131.73
224.262	71.45
224.479	49.99
224.696	38.73
224.913	74.73
225.13	60.26
225.347	28.73
225.564	27.25
225.781	-44.33
225.997	-18.06
226.214	-44.31
226.431	-86.05
226.648	-102.22
226.865	-92.45
227.082	-127.93
227.298	-196.88
227.515	-146.42
227.732	-72.19
227.949	-92.57
228.165	-80.73
228.382	-57.03
228.599	-70.04
228.816	-50.34
229.032	-39.45
229.249	-30.84
229.466	-22.7
229.682	-8.07
229.899	-7.56
230.116	-18.89
230.332	-8.85
230.549	-8
230.765	-4.76
230.982	-8.3
231.199	-26.96
231.415	-25.16
231.632	-15.68
231.848	-22.84
232.065	-40.71
232.281	-50.55
232.498	-47.32
232.714	-42.36
232.931	-83.45
233.147	-115.2
233.364	-80.41
233.58	-22.57
233.797	-19.47
234.013	-23.85
234.23	-26.78
234.446	-6.11
234.662	-13.68
234.879	22.37
235.095	9.82
235.312	34.16
235.528	18.67
235.744	-6.57
235.961	-15.77
236.177	-6.56
236.393	-16.52
236.61	30.95
236.826	18.8
237.042	23.69
237.258	7.39
237.475	11.3
237.691	11.52
237.907	17.76
238.123	13.76
238.339	21.36
238.556	18.16
238.772	5.94
238.988	-7.56
239.204	-16.68
239.42	-29.09
239.636	-42.2
239.853	-21.61
240.069	-18.48
240.285	-4.81
240.501	-0.41
240.717	-12.24
240.933	-20.65
241.149	-5.31
241.365	-8.01
241.581	-4.52
241.797	0.8
242.013	4.92
242.229	1.27
242.445	0.3
242.661	-0.68
242.877	5.18
243.093	9.48
243.309	15.73
243.525	11.68
243.741	12.77
243.957	12.65
244.173	11.49
244.388	9.38
244.604	10.65
244.82	8.69
245.036	8.74
245.252	8.45
245.468	6.51
245.683	5.91
245.899	7.33
246.115	8.03
246.331	7.71
246.547	7.19
246.762	9.21
246.978	6.23
247.194	5.95
247.409	2.2
247.625	0.33
247.841	-1.5
248.057	-1.13
248.272	-3.32
248.488	-6.21
248.703	-1.46
248.919	-4.21
249.135	-13.41
249.35	-7.04
249.566	-13.8
249.782	-9.09
249.997	-6.29
250.213	-10.43
250.428	-11.82
250.644	-6.75
250.859	-0.62
251.075	-5.96
251.29	-6.95
251.506	-0.71
251.721	-5.04
251.937	-0.25
252.152	-1.09
252.368	5.66
252.583	7.23
252.798	-0.16
253.014	-9.09
253.229	-13.57
253.445	-17.53
253.66	-11.5
253.875	-10.43
254.091	-20.52
254.306	-17.84
254.521	-7.23
254.737	-38.74
254.952	-24.98
255.167	-20.83
255.383	-5.6
255.598	-14.99
255.813	4.97
256.028	5.99
256.244	4.32
256.459	10.61
256.674	6.15
256.889	-4.14
257.104	4.09
257.32	8.34
257.535	9.51
257.75	7.28
257.965	12.55
258.18	7.87
258.395	4.58
258.61	3.95
258.826	3.19
259.041	3.43
259.256	3.69
259.471	0.38
259.686	-0.47
259.901	-0.52
260.116	-1.2
260.331	-4.19
260.546	-3.95
260.761	-3.99
260.976	-5.12
261.191	-6.38
261.406	-5.27
261.621	-7.94
261.836	-7.39
262.05	-6.36
262.265	-5.08
262.48	-4.53
262.695	-0.79
262.91	-3.87
263.125	-4.6
263.34	-5.55
263.555	-10.95
263.769	-12.05
263.984	-6.35
264.199	-9.27
264.414	-5.4
264.629	-7.97
264.843	-13.78
265.058	-8.81
265.273	-12.23
265.488	-4.4
265.702	-4.74
265.917	3.98
266.132	8.2
266.346	9.62
266.561	7.57
266.776	1.25
266.99	-0.39
267.205	3.3
267.42	-0.96
267.634	5.12
267.849	0.48
268.063	-2.59
268.278	-2.65
268.492	-7.67
268.707	-6.25
268.922	-3.69
269.136	-1.15
269.351	3.16
269.565	6.53
269.78	8.03
269.994	4.28
270.209	3.95
270.423	6.74
270.637	6.84
270.852	6.31
271.066	0.04
271.281	3.63
271.495	3.72
271.709	1.1
271.924	-2.52
272.138	-4.91
272.353	-3.93
272.567	0.43
272.781	3.02
272.996	1.29
273.21	2.66
273.424	7
273.638	3.16
273.853	1.8
274.067	2.64
274.281	5.38
274.495	7.27
274.71	9.24
274.924	7.41
275.138	6.94
275.352	7.41
275.566	7.11
275.781	9.18
275.995	8.6
276.209	5.62
276.423	6.17
276.637	4.89
276.851	0.45
277.065	-2.89
277.279	-5.78
277.493	-8.02
277.707	-9.69
277.921	-12.5
278.135	-13.14
278.349	-6.55
278.563	-1.43
278.777	-4.46
278.991	-4.84
279.205	-0.11
279.419	2.79
279.633	2.38
279.847	3.81
280.061	3.66
280.275	3.36
280.489	1.68
280.703	-0.91
280.917	-0.02
281.131	2.33
281.344	1.76
281.558	0.71
281.772	-0.67
281.986	-1.1
282.2	-2.91
282.414	-1.26
282.627	1.89
282.841	1.63
283.055	1.87
283.269	-0.2
283.482	0.71
283.696	0.35
283.91	3.32
284.123	3.6
284.337	5.34
284.551	5.77
284.764	5.14
284.978	4.71
285.192	4.15
285.405	3.91
285.619	5
285.833	2.57
286.046	4.67
286.26	1.37
286.473	1.87
286.687	1.14
286.9	3.07
287.114	3.28
287.327	0.48
287.541	1.57
287.754	2.36
287.968	1.34
288.181	1.51
288.395	0.74
288.608	2.31
288.822	0.71
289.035	2.39
289.248	-3.23
289.462	-0.1
289.675	1.23
289.889	1.91
290.102	3.81
290.315	2.6
290.529	1.91
290.742	3.16
290.955	1.67
291.169	-0.02
291.382	-3.11
291.595	-1.52
291.808	-4.27
292.022	-1.28
292.235	-4.29
292.448	-6.31
292.661	-5.63
292.875	-3.41
293.088	-8.7
293.301	-9.71
293.514	-8.94
293.727	-6.03
293.94	-5.17
294.153	-3.31
294.367	-6.82
294.58	-4.02
294.793	-2.85
295.006	0.2
295.219	-0.38
295.432	2.47
295.645	5.46
295.858	5.9
296.071	4.28
296.284	5.86
296.497	5.85
296.71	5.45
296.923	4.82
297.136	5.14
297.349	5.16
297.562	4.29
297.775	4.86
297.988	3.15
298.201	2.87
298.414	3.74
298.626	4.23
298.839	2.02
299.052	6.47
299.265	7.93
299.478	6.16
299.691	4.31
299.903	5.98
300.116	4.97
300.329	3.69
300.542	4.68
300.755	4.51
300.967	2.45
301.18	0.54
301.393	-0.81
301.605	-1.25
301.818	0.46
302.031	0.83
302.243	-1.09
302.456	-2.04
302.669	-0.28
302.881	-0.39
303.094	-1.35
303.307	-0.5
303.519	0.72
303.732	0.13
303.944	-3.55
304.157	-3.83
304.37	-4.69
304.582	-1.11
304.795	-1.94
305.007	-3.84
305.22	-0.37
305.432	1.74
305.645	2.51
305.857	3.21
306.069	1.03
306.282	0.73
306.494	1.34
306.707	4.48
306.919	3.5
307.132	3.92
307.344	4.33
307.556	3.44
307.769	4.09
307.981	1.67
308.193	4.56
308.406	7.86
308.618	9.59
308.83	8.76
309.043	8.73
309.255	9.03
309.467	9
309.679	10.1
309.892	7.76
310.104	6.38
310.316	8.27
310.528	6.54
310.74	5.95
310.953	4.96
311.165	4.49
311.377	1.21
311.589	1.95
311.801	1.86
312.013	3.45
312.225	4.37
312.437	2.47
312.649	2.95
312.862	1.07
313.074	0.74
313.286	3.12
313.498	5.29
313.71	6.03
313.922	5.39
314.134	8.45
314.346	5.77
314.558	5.33
314.77	7.36
314.982	6.17
315.193	7.65
315.405	7.53
315.617	6.09
315.829	3.54
316.041	5.19
316.253	4.29
316.465	3.27
316.677	2.33
316.888	2.56
317.1	0.54
317.312	-2.78
317.524	-1.19
317.736	-3.82
317.947	-4.47
318.159	-8.18
318.371	-9.88
318.583	-10.51
318.794	-10.88
319.006	-9.02
319.218	-6.91
319.43	-3.21
319.641	-0.81
319.853	-2.94
320.064	-0.36
320.276	-0.38
320.488	3.09
320.699	3.65
320.911	7.05
321.123	7.43
321.334	7.7
321.546	6.11
321.757	3.71
321.969	4.08
322.18	3.83
322.392	1.17
322.603	0.76
322.815	-0.3
323.026	-1.66
323.238	-3.34
323.449	-5.25
323.661	-6.67
323.872	-5.35
324.083	-6.99
324.295	-4.45
324.506	-2.32
324.718	-1.01
324.929	2.68
325.14	2.63
325.352	4.62
325.563	3.17
325.774	1.61
325.986	1.05
326.197	1.64
326.408	2.37
326.62	-0.84
326.831	-3.25
327.042	-2.49
327.253	-7.06
327.464	-5.29
327.676	-5.83
327.887	-5.72
328.098	-3.6
328.309	-3.49
328.52	-5.75
328.732	-3.29
328.943	0.82
329.154	4.3
329.365	1.55
329.576	3.91
329.787	4.75
329.998	5.2
330.209	5.64
330.42	6.36
330.631	7.28
330.842	9.39
331.053	9.2
331.264	7.82
331.475	7.34
331.686	11.26
331.897	12.14
332.108	9.84
332.319	9.85
332.53	10.79
332.741	10.15
332.952	9.38
333.163	8.29
333.374	8.25
333.585	4.75
333.795	3.34
334.006	1.29
334.217	-0.64
334.428	1.76
334.639	2.12
334.849	2.24
335.06	4.24
335.271	5.02
335.482	5.58
335.692	7.43
335.903	11.26
336.114	10.42
336.325	11.37
336.535	10.39
336.746	8.17
336.957	9.67
337.167	11.01
337.378	9.77
337.589	9.62
337.799	9.2
338.01	8.45
338.22	6.01
338.431	4.55
338.642	3.34
338.852	6.88
339.063	8.37
339.273	6.55
339.484	5.66
339.694	7.16
339.905	8.91
340.115	9.53
340.326	7.87
340.536	9.14
340.746	11.38
340.957	11.97
341.167	13.29
341.378	13.87
341.588	14.37
341.799	12.5
342.009	9.61
342.219	8.93
342.43	8.44
342.64	8.78
342.85	8.77
343.061	9.35
343.271	7.84
343.481	6.34
343.691	5.11
343.902	4.23
344.112	5.6
344.322	6.38
344.532	7.19
344.743	8.54
344.953	6.77
345.163	4.45
345.373	3.97
345.583	4.67
345.793	5.33
346.004	5.49
346.214	5.01
346.424	3.55
346.634	4.48
346.844	2.7
347.054	1.65
347.264	2.72
347.474	7.48
347.684	5.25
347.894	4.83
348.104	2.78
348.314	3.94
348.524	5.19
348.734	7.36
348.944	5.92
349.154	7.31
349.364	7.3
349.574	9.12
349.784	7.17
349.994	7.61
350.204	7.34
350.413	8.57
350.623	8.77
350.833	9.69
351.043	9.87
351.253	11.41
351.463	10.74
351.672	7.05
351.882	4.87
352.092	5.83
352.302	6.89
352.511	8.09
352.721	6.89
352.931	7.23
353.141	3.64
353.35	3.14
353.56	1.88
353.77	2.92
353.979	5.16
354.189	7.45
354.399	7.1
354.608	8.76
354.818	9.81
355.027	9.46
355.237	8.28
355.447	11.24
355.656	8.94
355.866	9.41
356.075	7.81
356.285	7.02
356.494	5.25
356.704	4.88
356.913	4.37
357.123	4.1
357.332	4.3
357.542	5.21
357.751	5.1
357.96	6.53
358.17	5.97
358.379	6.14
358.589	9.26
358.798	9.52
359.007	9.66
359.217	11.52
359.426	11.67
359.635	10.78
359.845	9.9
360.054	9.51
360.263	10.53
360.472	10.45
360.682	11.58
360.891	10.87
361.1	11.92
361.309	11.59
361.519	9.11
361.728	8.39
361.937	9.97
362.146	9.92
362.355	9.58
362.564	8.09
362.774	9.59
362.983	8.77
363.192	8.78
363.401	8.21
363.61	8.72
363.819	9.3
364.028	10.11
364.237	8.23
364.446	8.58
364.655	8.9
364.864	9.23
365.073	7.96
365.282	7.53
365.491	8.4
365.7	7.47
365.909	6.32
366.118	6.45
366.327	5.59
366.536	7.35
366.745	7.11
366.954	7.36
367.162	7.13
367.371	6.53
367.58	6.72
367.789	4.04
367.998	5.48
368.207	5
368.415	5.31
368.624	6.37
368.833	6.77
369.042	6.06
369.25	4.83
369.459	5.71
369.668	7.07
369.877	7.02
370.085	9.03
370.294	6.94
370.503	7.24
370.711	7.82
370.92	6.63
371.129	5.92
371.337	7.57
371.546	6.28
371.754	6.48
371.963	5.8
372.171	5.01
372.38	4.79
372.589	4.13
372.797	4.23
373.006	3.37
373.214	3.82
373.423	3
373.631	2.78
373.84	3.47
374.048	3.03
374.256	3.78
374.465	4.81
374.673	5.62
374.882	6.28
375.09	7.26
375.298	8.96
375.507	8.88
375.715	10.31
375.923	9.43
376.132	10.86
376.34	10.38
376.548	10.23
376.757	9.53
376.965	10.12
377.173	11.05
377.381	11.33
377.59	9.14
377.798	9.46
378.006	8.05
378.214	7.43
378.423	6.99
378.631	7.23
378.839	6.69
379.047	7.96
379.255	4.4
379.463	4.36
379.671	2.78
379.879	3.05
380.088	1.53
380.296	1.52
380.504	2.88
380.712	3.1
380.92	2.34
381.128	2.33
381.336	1.26
381.544	2.44
381.752	2.14
381.96	3.91
382.168	4.25
382.376	5.88
382.584	6.31
382.791	4.26
382.999	2.15
383.207	1.86
383.415	2.09
383.623	2.05
383.831	1.18
384.039	0.1
384.247	-0.15
384.454	-1.48
384.662	-1.89
384.87	-1.97
385.078	-0.23
385.285	0.29
385.493	1.54
385.701	1.16
385.909	2.05
386.116	3.22
386.324	4.49
386.532	3.87
386.739	4.9
386.947	4.83
387.155	4.96
387.362	4.49
387.57	5.01
387.778	4.9
387.985	5.16
388.193	3.88
388.4	3.98
388.608	3.21
388.816	3.53
389.023	4.55
389.231	4.51
389.438	5.64
389.646	5.84
389.853	6.47
390.061	7.06
390.268	6.76
390.475	6.88
390.683	5.59
390.89	6.05
391.098	6.17
391.305	4.78
391.512	4.44
391.72	2.7
391.927	1.32
392.135	1.46
392.342	0.97
392.549	1.36
392.756	1.41
392.964	2.04
393.171	1.96
393.378	2.06
393.586	2.37
393.793	1.93
394	2.61
394.207	3.7
394.414	3.69
394.622	2.97
394.829	2.9
395.036	3.82
395.243	3.17
395.45	3.1
395.657	1.66
395.864	2.06
396.072	3.43
396.279	3.35
396.486	3.85
396.693	3.62
396.9	3.44
397.107	3.34
397.314	2.29
397.521	2.49
397.728	2.05
397.935	2.91
398.142	2.19
398.349	1.63
398.556	1.58
398.763	3.03
398.97	3.19
399.177	4.22
399.383	3.2
399.59	3.46
399.797	3.82
400.004	4.07
400.211	3.7
400.418	3.89
400.625	3.5
400.831	4.16
401.038	2.53
401.245	1.6
401.452	1.16
401.658	1.68
401.865	1.59
402.072	2.76
402.279	2.2
402.485	3.94
402.692	4.41
402.899	4.19
403.105	3.89
403.312	4.01
403.519	4.99
403.725	5.03
403.932	4.76
404.138	5.63
404.345	4.85
404.552	5.39
404.758	5.01
404.965	4.93
405.171	4.86
405.378	4.2
405.584	4.24
405.791	3.93
405.997	2.87
406.204	4.53
406.41	3.47
406.617	3.43
406.823	3.16
407.029	2.21
407.236	2.15
407.442	2.87
407.649	3.38
407.855	3.5
408.061	3.55
408.268	4.14
408.474	3.27
408.68	3.6
408.887	4.89
409.093	5.01
409.299	4.76
409.505	4.86
409.712	4.51
409.918	4.68
410.124	3.98
410.33	4.21
410.537	3.88
410.743	2.94
410.949	2.94
411.155	2
411.361	2.68
411.567	1.79
411.773	1.99
411.98	1.83
412.186	1.35
412.392	1.42
412.598	0.28
412.804	1.85
413.01	3.07
413.216	3.05
413.422	2.7
413.628	2.09
413.834	3.1
414.04	2.13
414.246	2.65
414.452	3.3
414.658	3.29
414.864	3.48
415.07	3.11
415.275	3.08
415.481	3.82
415.687	4.41
415.893	5.16
416.099	4.75
416.305	4.81
416.511	4.76
416.716	4.92
416.922	5.09
417.128	4.72
417.334	4.64
417.539	4.89
417.745	4.08
417.951	4.02
418.157	3.5
418.362	4.03
418.568	3.79
418.774	3.94
418.979	3.61
419.185	3.96
419.391	4.89
419.596	4.12
419.802	3.87
420.008	3.94
420.213	3.7
420.419	3.62
420.624	3.67
420.83	4.21
421.035	4.08
421.241	4.11
421.446	3.8
421.652	3.6
421.857	4.73
422.063	4.65
422.268	4.51
422.474	4.25
422.679	4.28
422.885	4.4
423.09	3.93
423.295	4.43
423.501	4.76
423.706	4.78
423.911	5
424.117	4.21
424.322	4.38
424.527	4.51
424.733	4.84
424.938	5.03
425.143	5.26
425.349	5.7
425.554	5.2
425.759	4.7
425.964	4.58
426.169	4.02
426.375	4.37
426.58	3.95
426.785	4.63
426.99	4.48
427.195	4.33
427.4	3.98
427.605	3.42
427.811	3.07
428.016	3.66
428.221	4.34
428.426	4.69
428.631	4.06
428.836	4.19
429.041	3.13
429.246	3
429.451	3.08
429.656	2.8
429.861	3.64
430.066	3.65
430.271	3.64
430.476	3.55
430.681	3.45
430.886	4.46
431.09	4.72
431.295	5
431.5	5.05
431.705	5.13
431.91	5.2
432.115	5.5
432.32	6.03
432.524	6.11
432.729	5.4
432.934	5.6
433.139	5.02
433.343	5.04
433.548	5.56
433.753	5.52
433.958	5.54
434.162	5.45
434.367	5.56
434.572	5.37
434.776	5.73
434.981	6.36
435.186	6.36
435.39	6.53
435.595	6.5
435.799	5.33
436.004	5.96
436.209	5.65
436.413	5.29
436.618	4.61
436.822	4.7
437.027	4.65
437.231	4.39
437.436	4.26
437.64	4.67
437.845	4.92
438.049	6.09
438.253	5.87
438.458	6.04
438.662	6.85
438.867	6.55
439.071	6.35
439.275	6.12
439.48	5.95
439.684	5.76
439.888	5.49
440.093	5.54
440.297	5.06
440.501	4.73
440.706	4.67
440.91	3.77
441.114	4.32
441.318	4.4
441.523	3.67
441.727	3.9
441.931	3.83
442.135	3.91
442.339	3.74
442.543	3.99
442.748	3.66
442.952	3.26
443.156	3.83
443.36	2.99
443.564	2.95
443.768	3.22
443.972	3.65
444.176	4.1
444.38	4.26
444.584	4.12
444.788	4.03
444.992	4.49
445.196	4.86
445.4	4.65
445.604	4.83
445.808	4.89
446.012	5.1
446.216	4.82
446.42	5.13
446.624	5.04
446.828	4.82
447.032	4.76
447.235	5.23
447.439	5.31
447.643	5.65
447.847	6.11
448.051	5.87
448.254	5.56
448.458	5.2
448.662	4.72
448.866	4.68
449.069	5.28
449.273	4.89
449.477	4.26
449.681	3.56
449.884	2.6
450.088	2.21
450.292	2.22
450.495	2.5
450.699	2.69
450.902	2.54
451.106	2.95
451.31	2.44
451.513	2.93
451.717	2.44
451.92	2.84
452.124	3.5
452.327	3.24
452.531	2.91
452.734	2.59
452.938	2.15
453.141	2.41
453.345	1.94
453.548	2.09
453.752	1.26
453.955	1.89
454.158	2.27
454.362	2.83
454.565	2.86
454.769	3.03
454.972	2.69
455.175	3.29
455.379	2.77
455.582	2.28
455.785	2.36
455.988	3.43
456.192	3.21
456.395	3.18
456.598	2.61
456.801	2.54
457.005	3.08
457.208	3.7
457.411	3.63
457.614	3.85
457.817	3.86
458.021	3.72
458.224	3.94
458.427	3.83
458.63	3.62
458.833	3.47
459.036	3.67
459.239	4
459.442	4.22
459.645	4.34
459.848	4.16
460.051	4.35
460.254	4.58
460.457	4.36
460.66	4.45
460.863	4.16
461.066	4.62
461.269	4.79
461.472	4.27
461.675	3.92
461.878	4.07
462.081	4.13
462.284	4.11
462.486	4
462.689	4.11
462.892	4.3
463.095	4.71
463.298	4.39
463.5	4.58
463.703	4.84
463.906	4.67
464.109	4.6
464.311	4.54
464.514	4.72
464.717	5.3
464.92	4.84
465.122	4.91
465.325	4.69
465.528	4.84
465.73	4.31
465.933	4.04
466.135	4.09
466.338	3.88
466.541	4.18
466.743	4.14
466.946	3.35
467.148	3.45
467.351	3.16
467.553	3.53
467.756	3.24
467.958	2.76
468.161	2.67
468.363	3.36
468.566	3.14
468.768	3.24
468.971	3.09
469.173	3.64
469.375	3.21
469.578	3.25
469.78	3.41
469.983	3.48
470.185	4.13
470.387	4.23
470.59	3.32
470.792	3.57
470.994	2.96
471.196	2.85
471.399	2.61
471.601	3.26
471.803	3.61
472.005	3.58
472.208	3.49
472.41	3.46
472.612	3.41
472.814	4
473.016	3.53
473.218	4.02
473.421	4.56
473.623	4.16
473.825	3.89
474.027	3.91
474.229	3.78
474.431	4.16
474.633	4.21
474.835	4.03
475.037	4.25
475.239	4.99
475.441	4.9
475.643	4.71
475.845	5.07
476.047	5.11
476.249	5.13
476.451	5.05
476.653	5.18
476.855	5.36
477.057	5.35
477.258	5.35
477.46	5.16
477.662	4.85
477.864	4.53
478.066	3.97
478.268	3.86
478.469	3.67
478.671	4.01
478.873	3.46
479.075	3.14
479.276	3.31
479.478	2.96
479.68	3.12
479.882	3.39
480.083	3.39
480.285	4.23
480.487	4.21
480.688	4.32
480.89	4.12
481.091	4.52
481.293	4.8
481.495	4.66
481.696	4.59
481.898	4.44
482.099	4.41
482.301	4.49
482.502	4.26
482.704	4.34
482.905	4.32
483.107	4.3
483.308	4.18
483.51	4.12
483.711	4.19
483.913	4.36
484.114	4.44
484.315	4.62
484.517	4.62
484.718	4.68
484.92	4.61
485.121	4.48
485.322	4.64
485.524	4.75
485.725	4.8
485.926	4.69
486.127	4.62
486.329	4.47
486.53	4.27
486.731	4.29
486.932	4.2
487.134	4.28
487.335	4.3
487.536	4.25
487.737	4.15
487.938	4.11
488.139	4.1
488.341	4.08
488.542	4.06
488.743	4
488.944	3.82
489.145	3.87
489.346	4.05
489.547	4.15
489.748	3.86
489.949	3.93
490.15	4.09
490.351	4.47
490.552	4.37
490.753	4.47
490.954	4.62
491.155	4.79
491.356	4.8
491.557	4.55
491.758	4.66
491.959	4.92
492.159	4.88
492.36	4.86
492.561	4.55
492.762	4.8
492.963	4.93
493.164	4.79
493.364	4.74
493.565	4.93
493.766	5.17
493.967	5.07
494.167	4.89
494.368	4.75
494.569	4.84
494.769	4.85
494.97	4.74
495.171	4.48
495.371	4.77
495.572	4.49
495.773	4.15
495.973	4.07
496.174	4.53
496.375	4.64
496.575	4.69
496.776	4.66
496.976	4.67
497.177	4.21
497.377	4.39
497.578	3.98
497.778	4.3
497.979	4.32
498.179	4.05
498.38	3.62
498.58	3.74
498.78	4.45
498.981	4.48
499.181	4.64
499.382	4.8
499.582	4.71
499.782	4.92
499.983	5.33
500.183	5.84
500.383	6.22
500.584	6.25
500.784	6.51
500.984	5.89
501.184	5.52
501.385	5.6
501.585	5.83
501.785	5.76
501.985	5.94
502.185	5.38
502.386	5.17
502.586	5.46
502.786	5.09
502.986	4.96
503.186	4.99
503.386	5.34
503.586	5.45
503.786	5.69
503.987	6.01
504.187	5.81
504.387	6.04
504.587	6.15
504.787	5.6
504.987	5.68
505.187	5.44
505.387	5.96
505.587	5.93
505.786	5.64
505.986	5.61
506.186	5.35
506.386	5.48
506.586	5.18
506.786	5.11
506.986	5.34
507.186	5.65
507.386	5.99
507.585	5.44
507.785	5.61
507.985	5.74
508.185	5.57
508.384	5.51
508.584	5.7
508.784	6.14
508.984	5.63
509.183	5.97
509.383	6.18
509.583	6.02
509.782	6.33
509.982	6.28
510.182	6.37
510.381	6.71
510.581	6.82
510.781	6.71
510.98	6.88
511.18	7.31
511.379	6.98
511.579	7.01
511.778	7.01
511.978	7.19
512.177	7.09
512.377	7.36
512.576	7.24
512.776	7.68
512.975	8.02
513.175	7.87
513.374	7.93
513.573	8.09
513.773	7.79
513.972	7.98
514.172	7.89
514.371	7.75
514.57	7.35
514.77	7.54
514.969	7.45
515.168	7.13
515.367	7.04
515.567	7.3
515.766	7.46
515.965	8
516.164	8.3
516.364	8.46
516.563	9.2
516.762	9.53
516.961	9.16
517.16	9.39
517.359	9.51
517.559	9.63
517.758	9.6
517.957	10.1
518.156	9.91
518.355	9.8
518.554	9.77
518.753	9.78
518.952	9.79
519.151	9.99
519.35	9.75
519.549	10.02
519.748	10.28
519.947	10.34
520.146	9.48
520.345	9.55
520.544	9.65
520.743	9.66
520.942	9.6
521.141	9.76
521.339	10.16
521.538	10.44
521.737	10.49
521.936	10.27
522.135	10.29
522.333	10.88
522.532	11.16
522.731	10.92
522.93	11.17
523.129	11.18
523.327	11.58
523.526	11.46
523.725	11.22
523.923	11.28
524.122	11.84
524.321	11.87
524.519	12.04
524.718	12.21
524.917	12.71
525.115	12.69
525.314	12.74
525.512	12.74
525.711	12.79
525.909	13.28
526.108	13.36
526.306	13.39
526.505	13.53
526.703	13.63
526.902	13.78
527.1	13.79
527.299	13.99
527.497	14.26
527.696	14.22
527.894	14.29
528.092	14.24
528.291	14.31
528.489	14.19
528.688	14.44
528.886	14.52
529.084	14.5
529.283	14.72
529.481	14.74
529.679	14.67
529.877	14.71
530.076	15.08
530.274	15.08
530.472	14.96
530.67	15.3
530.869	15.32
531.067	15.41
531.265	15.59
531.463	15.66
531.661	15.71
531.859	15.7
532.057	15.57
532.255	15.55
532.454	15.89
532.652	16.17
532.85	16.24
533.048	16.26
533.246	16.14
533.444	16.12
533.642	16.15
533.84	16.21
534.038	16.51
534.236	16.73
534.434	16.69
534.632	16.6
534.83	16.67
535.027	16.88
535.225	16.98
535.423	17.54
535.621	17.64
535.819	17.62
536.017	17.96
536.215	17.85
536.412	17.82
536.61	18.17
536.808	18.28
537.006	18.33
537.203	18.46
537.401	18.47
537.599	18.63
537.797	18.67
537.994	18.78
538.192	18.66
538.39	18.98
538.587	19.46
538.785	19.4
538.983	19.15
539.18	19.3
539.378	19.17
539.575	19.21
539.773	19.3
539.97	19.46
540.168	19.46
540.366	19.71
540.563	19.85
540.761	20.05
540.958	20.29
541.155	20.52
541.353	20.77
541.55	21.06
541.748	21.26
541.945	21.2
542.143	21.54
542.34	21.63
542.537	21.87
542.735	21.61
542.932	21.77
543.129	21.56
543.327	21.86
543.524	21.65
543.721	21.24
543.919	21.26
544.116	21.33
544.313	21.11
544.51	21.23
544.708	20.8
544.905	21.01
545.102	20.82
545.299	21.02
545.496	20.91
545.693	21.3
545.891	21.34
546.088	21.42
546.285	21.42
546.482	21.47
546.679	21.86
546.876	21.72
547.073	21.54
547.27	21.36
547.467	20.81
547.664	21.12
547.861	20.94
548.058	21.21
548.255	21.54
548.452	21.53
548.649	21.48
548.846	21.12
549.043	21.51
549.24	22.11
549.437	22.64
549.633	22.95
549.83	23.22
550.027	23.22
550.224	23.51
550.421	23.48
550.618	23.33
550.814	23.27
551.011	23.52
551.208	23.78
551.405	23.96
551.601	23.7
551.798	24.08
551.995	23.57
552.191	23.5
552.388	23.25
552.585	23.19
552.781	23.65
552.978	24.5
553.175	24.63
553.371	24.42
553.568	24.43
553.764	24.35
553.961	24.6
554.157	24.97
554.354	25.09
554.55	25.86
554.747	25.31
554.943	24.98
555.14	24.24
555.336	23.94
555.533	24.08
555.729	23.71
555.926	24.31
556.122	23.79
556.318	24.03
556.515	23.64
556.711	23.5
556.907	24.35
557.104	23.94
557.3	24.19
557.496	24.37
557.693	24.64
557.889	25.2
558.085	24.82
558.281	25.37
558.478	25.26
558.674	26.14
558.87	26.34
559.066	26.02
559.262	27.13
559.459	27.09
559.655	27.15
559.851	27.11
560.047	26.92
560.243	27.42
560.439	27.83
560.635	27.78
560.831	27.47
561.027	27.12
561.223	27.56
561.419	27.25
561.615	27.43
561.811	27.62
562.007	27.78
562.203	27.31
562.399	27.14
562.595	26.71
562.791	26.93
562.987	26.28
563.183	26.45
563.379	25.87
563.575	26.3
563.771	26.76
563.966	27.12
564.162	27.39
564.358	28.41
564.554	28.89
564.75	29.35
564.945	29.16
565.141	29.88
565.337	29.66
565.533	30.22
565.728	30.19
565.924	29.91
566.12	29.18
566.315	29.35
566.511	28.96
566.707	28.84
566.902	28.36
567.098	28.47
567.293	28.95
567.489	28.72
567.684	28.94
567.88	28.97
568.076	28.59
568.271	28.7
568.467	28.16
568.662	28.24
568.858	28.54
569.053	29.04
569.248	29.61
569.444	28.96
569.639	29.59
569.835	29.38
570.03	29.75
570.225	30.09
570.421	30.5
570.616	30.81
570.812	30.99
571.007	30.91
571.202	30.75
571.397	30.37
571.593	30.99
571.788	30.79
571.983	30.81
572.178	30.28
572.374	29.82
572.569	29.69
572.764	29.53
572.959	29.58
573.154	29.31
573.35	29.71
573.545	29.59
573.74	29.19
573.935	29.24
574.13	29.68
574.325	29.65
574.52	30.2
574.715	29.92
574.91	30.34
575.105	30.1
575.3	30.18
575.495	29.59
575.69	29.48
575.885	30.05
576.08	30.45
576.275	29.73
576.47	29.93
576.665	30.23
576.86	31.01
577.055	30.64
577.25	30.64
577.444	30.44
577.639	30.26
577.834	30.56
578.029	30.06
578.224	29.82
578.418	30.87
578.613	31.6
578.808	31.19
579.003	30.97
579.197	31.56
579.392	31.86
579.587	32.37
579.781	32.97
579.976	32.91
580.171	32.65
580.365	33
580.56	31.78
580.755	31
580.949	31.45
581.144	31.51
581.338	30.97
581.533	31.51
581.727	31.27
581.922	30.56
582.116	30.9
582.311	30.95
582.505	30.83
582.7	31.35
582.894	32.21
583.089	32.38
583.283	32.53
583.478	33.25
583.672	32.75
583.866	32.68
584.061	33.62
584.255	33.34
584.449	33.83
584.644	33.04
584.838	33.65
585.032	32.93
585.226	32.4
585.421	32.39
585.615	32.03
585.809	32.24
586.003	32.33
586.198	32.68
586.392	32.81
586.586	33.16
586.78	34.53
586.974	33.86
587.168	33.12
587.363	33.81
587.557	33.51
587.751	33.9
587.945	33.35
588.139	34.25
588.333	34.88
588.527	34.88
588.721	34.44
588.915	33.73
589.109	33.61
589.303	34.56
589.497	34.29
589.691	34.42
589.885	34.03
590.079	34.31
590.273	33.67
590.466	32.61
590.66	33.28
590.854	33.56
591.048	33.74
591.242	33.71
591.436	32.87
591.629	33.01
591.823	32.38
592.017	32.83
592.211	32.68
592.404	32.29
592.598	32.43
592.792	31.55
592.986	31.4
593.179	31.63
593.373	32.1
593.567	32.68
593.76	32.06
593.954	33.53
594.147	33.33
594.341	33.64
594.535	34.02
594.728	33.94
594.922	34.42
595.115	34.34
595.309	34.28
595.502	34.51
595.696	34.71
595.889	35.36
596.083	34.89
596.276	34.83
596.47	34.75
596.663	34.69
596.856	34.73
597.05	34.37
597.243	34.64
597.437	34.8
597.63	34.86
597.823	34.84
598.017	34.41
598.21	34.02
598.403	33.39
598.596	33.48
598.79	33.34
598.983	33.81
599.176	34.4
599.369	33.62
599.563	33.68
599.756	32.78
599.949	32.54
600.142	32.49
600.335	32.39
600.528	32.37
600.722	32.55
600.915	32.6
601.108	32.69
601.301	31.88
601.494	32.12
601.687	30.9
601.88	31.59
602.073	32.54
602.266	33.63
602.459	34.18
602.652	34.99
602.845	34.8
603.038	35.03
603.231	34.69
603.424	35.13
603.617	35.34
603.809	35.84
604.002	35.66
604.195	35.2
604.388	34.74
604.581	34.55
604.774	34.19
604.966	34.35
605.159	34.44
605.352	34.55
605.545	33.87
605.737	34.12
605.93	34.44
606.123	34.71
606.316	34.35
606.508	33.91
606.701	34.22
606.894	33.83
607.086	33.27
607.279	32.53
607.471	32.21
607.664	33.13
607.857	32.91
608.049	32.96
608.242	33.63
608.434	34.22
608.627	34.52
608.819	34.42
609.012	34.85
609.204	35.13
609.397	34.91
609.589	35.48
609.782	35.58
609.974	36.14
610.166	35.93
610.359	35.29
610.551	35.2
610.743	34.74
610.936	34.96
611.128	35.7
611.32	36.39
611.513	37.34
611.705	37.45
611.897	38.04
612.09	37.77
612.282	37.61
612.474	37.18
612.666	36.66
612.858	37.42
613.051	36.63
613.243	35.53
613.435	35.03
613.627	34.85
613.819	35
614.011	33.63
614.203	33.5
614.395	34.26
614.588	34.76
614.78	35.04
614.972	35.99
615.164	36.83
615.356	36.9
615.548	36.46
615.74	36.37
615.932	35.03
616.124	35.59
616.315	36.02
616.507	35.44
616.699	35.04
616.891	35.8
617.083	34.69
617.275	33.73
617.467	33.69
617.659	34.53
617.85	34.6
618.042	35.17
618.234	35.71
618.426	35.85
618.618	36.51
618.809	36.27
619.001	35.14
619.193	34.9
619.384	35.91
619.576	35.34
619.768	34.7
619.959	35.11
620.151	35.35
620.343	34.96
620.534	34.02
620.726	32.83
620.917	33.07
621.109	33.66
621.301	33.83
621.492	33.17
621.684	34.08
621.875	35.22
622.067	34.88
622.258	34.85
622.45	34.42
622.641	35.3
622.832	36.95
623.024	37.28
623.215	36.87
623.407	36.8
623.598	37.55
623.789	36.95
623.981	35.52
624.172	35.44
624.363	35.01
624.555	34.81
624.746	33.99
624.937	33.31
625.129	32.48
625.32	32.89
625.511	32.57
625.702	32.39
625.893	32.08
626.085	32.45
626.276	33.37
626.467	33.11
626.658	33.43
626.849	34.33
627.04	33.8
627.231	34.53
627.422	34.51
627.614	34.91
627.805	34.97
627.996	35.97
628.187	36.79
628.378	35.85
628.569	36.29
628.76	35.98
628.951	35.38
629.142	36.11
629.332	36.06
629.523	36.35
629.714	36.69
629.905	36.49
630.096	35.45
630.287	35.5
630.478	36.48
630.669	36.5
630.859	37.24
631.05	37.96
631.241	38.15
631.432	38.7
631.623	38.29
631.813	38.06
632.004	38.43
632.195	39.6
632.385	38.28
632.576	37.26
632.767	37.73
632.957	37.57
633.148	36.19
633.339	35.56
633.529	34.93
633.72	35.6
633.91	35.55
634.101	34.68
634.292	34.25
634.482	34.87
634.673	34.61
634.863	34.5
635.054	34.77
635.244	35.48
635.435	35.93
635.625	36.01
635.815	35.45
636.006	35.52
636.196	35.71
636.387	35.6
636.577	35.91
636.767	36.79
636.958	36.65
637.148	35.46
637.338	35.93
637.529	36.58
637.719	36.83
637.909	36.47
638.099	37.06
638.29	36.99
638.48	36.84
638.67	37.37
638.86	37.36
639.05	36.76
639.241	37.42
639.431	36.58
639.621	35.4
639.811	35.25
640.001	34.68
640.191	33.85
640.381	34.16
640.571	34.7
640.761	34
640.951	33.85
641.141	34.02
641.331	34.64
641.521	34.39
641.711	34.95
641.901	35.3
642.091	36.62
642.281	36.23
642.471	36.94
642.661	37.73
642.851	37.77
643.041	39.46
643.231	39.84
643.42	39.05
643.61	39.24
643.8	38.78
643.99	38.19
644.18	37.84
644.369	39.33
644.559	39.32
644.749	39.54
644.939	38.99
645.128	37.02
645.318	38.29
645.508	38.6
645.697	39.2
645.887	39.79
646.076	40.69
646.266	40.83
646.456	40.79
646.645	39.66
646.835	38.9
647.024	39.56
647.214	39.43
647.403	38.08
647.593	38.28
647.782	38.19
647.972	37.53
648.161	37.02
648.351	36.78
648.54	36.54
648.73	37.16
648.919	36.4
649.108	36
649.298	35.75
649.487	36.77
649.677	37.71
649.866	37.57
650.055	38.33
650.244	38.31
650.434	38.27
650.623	37.28
650.812	37.66
651.002	38.42
651.191	39.18
651.38	40.01
651.569	38.58
651.758	37.3
651.947	36.57
652.137	36.3
652.326	35.66
652.515	35.63
652.704	35.86
652.893	35.63
653.082	35.49
653.271	35.53
653.46	35.2
653.649	36.08
653.838	36.07
654.027	36.9
654.216	36.31
654.405	36.86
654.594	37.35
654.783	37.09
654.972	36.48
655.161	36.34
655.35	35.55
655.539	34.95
655.728	34.92
655.916	35.11
656.105	35.24
656.294	35.85
656.483	35.91
656.672	35.11
656.86	36.21
657.049	35.91
657.238	36.73
657.427	36.67
657.615	37.34
657.804	36.71
657.993	37.26
658.181	37.37
658.37	37.23
658.559	37.39
658.747	37.71
658.936	36.5
659.125	36.09
659.313	35.36
659.502	34.78
659.69	35.01
659.879	36.03
660.067	35.59
660.256	35.18
660.444	35.49
660.633	36.01
660.821	36.31
661.01	37.26
661.198	38.28
661.387	37.87
661.575	38.81
661.763	38.49
661.952	37.56
662.14	37.68
662.328	38.53
662.517	38.3
662.705	38.26
662.893	38.41
663.082	38.05
663.27	37.4
663.458	38.05
663.646	39
663.834	37.79
664.023	37.67
664.211	38
664.399	37.1
664.587	36.92
664.775	35.65
664.963	34.77
665.152	34.32
665.34	35.56
665.528	34.16
665.716	33.3
665.904	34.53
666.092	34.71
666.28	35.16
666.468	34.81
666.656	35.29
666.844	35.23
667.032	35.25
667.22	37.41
667.408	38.41
667.596	39.12
667.784	39.3
667.971	40.45
668.159	41.41
668.347	40.87
668.535	41.79
668.723	41.4
668.911	41.38
669.098	40.98
669.286	40.87
669.474	39.09
669.662	40.12
669.849	38.76
670.037	38.03
670.225	38.66
670.413	38.53
670.6	38.04
670.788	38.18
670.976	38.86
671.163	40.09
671.351	38.8
671.538	40.23
671.726	39.96
671.913	41.42
672.101	40.81
672.289	39.72
672.476	39.26
672.664	38.42
672.851	38.29
673.039	38.48
673.226	38.3
673.413	37.92
673.601	36.44
673.788	36.08
673.976	36.19
674.163	36.59
674.35	36.55
674.538	37.16
674.725	39.02
674.912	39.18
675.1	40.04
675.287	40.46
675.474	40.35
675.662	41.18
675.849	41.18
676.036	40.04
676.223	40.6
676.411	39.89
676.598	40.24
676.785	40.16
676.972	39.81
677.159	40.06
677.346	36.91
677.533	36.92
677.721	36.51
677.908	36.78
678.095	38.13
678.282	36.56
678.469	38
678.656	37.26
678.843	36.54
679.03	36.85
679.217	35.34
679.404	37.09
679.591	38.8
679.778	38.62
679.964	39.22
680.151	38.55
680.338	39.96
680.525	39.44
680.712	39.12
680.899	38.55
681.086	38.78
681.272	40.4
681.459	41.08
681.646	40.28
681.833	40.9
682.02	40.26
682.206	39.57
682.393	38.27
682.58	36.58
682.766	38.98
682.953	39.75
683.14	38.59
683.326	36.92
683.513	35.87
683.7	34.42
683.886	35.17
684.073	34.73
684.259	35.46
684.446	35.33
684.632	36.83
684.819	36.01
685.005	36.5
685.192	38.28
685.378	39.42
685.565	41.38
685.751	42.17
685.938	41.55
686.124	42.3
686.31	42.25
686.497	42.31
686.683	41.87
686.87	40.64
687.056	40.16
687.242	38.48
687.429	38.24
687.615	37.18
687.801	37.21
687.987	37.43
688.174	37.53
688.36	38.08
688.546	39.19
688.732	39.97
688.918	38.65
689.105	38.08
689.291	38.89
689.477	38.03
689.663	37.78
689.849	38.09
690.035	38.33
690.221	38.24
690.407	36.9
690.593	35.96
690.779	35.76
690.965	38.37
691.151	38.37
691.337	39.16
691.523	40.31
691.709	41.27
691.895	40.73
692.081	39.76
692.267	39.41
692.453	40.27
692.639	41.53
692.825	41.39
693.011	39.97
693.196	40.92
693.382	41.69
693.568	39.21
693.754	38.29
693.94	38.11
694.125	38.27
694.311	36.86
694.497	37.79
694.682	36.6
694.868	35.61
695.054	36.49
695.239	37.21
695.425	34.34
695.611	36.13
695.796	36.76
695.982	36.21
696.168	35.74
696.353	37.2
696.539	37.07
696.724	37.95
696.91	38.3
697.095	38.52
697.281	38.51
697.466	38.96
697.652	39.04
697.837	39.17
698.023	40.57
698.208	41.37
698.393	41.83
698.579	41.04
698.764	40.73
698.949	41.31
699.135	41.28
699.32	40.66
699.505	41.1
699.691	41.15
699.876	41.24
700.061	40.32
700.246	40.03
700.432	39.5
700.617	40.5
700.802	40.98
700.987	40.13
701.172	39.83
701.358	39.07
701.543	39.45
701.728	38.12
701.913	37.27
702.098	39.44
702.283	39.01
702.468	37.91
702.653	35.9
702.838	34.07
703.023	34.37
703.208	34.19
703.393	35.29
703.578	37.41
703.763	38.4
703.948	38.6
704.133	37.37
704.318	38.89
704.503	40.41
704.688	41.93
704.873	44.09
705.057	43.82
705.242	44.7
705.427	44.14
705.612	42.53
705.797	43.4
705.981	44.85
706.166	43.93
706.351	41.86
706.536	41.86
706.72	43.71
706.905	42.52
707.09	43.04
707.274	39.45
707.459	40.44
707.644	38.99
707.828	38.26
708.013	37.9
708.197	36.42
708.382	38.12
708.567	37.71
708.751	36.41
708.936	36.95
709.12	36.54
709.305	37.54
709.489	36.75
709.673	37.78
709.858	39.34
710.042	39.64
710.227	41.44
710.411	41.06
710.596	40.64
710.78	39.88
710.964	40.03
711.149	39.79
711.333	41.37
711.517	42.11
711.702	40.77
711.886	39.51
712.07	38.63
712.254	37.62
712.438	36.3
712.623	36.65
712.807	38.15
712.991	37.62
713.175	38.38
713.359	37.69
713.544	36.86
713.728	37.46
713.912	37.38
714.096	39.08
714.28	39.02
714.464	39.39
714.648	38.2
714.832	36.59
715.016	36.09
715.2	36.74
715.384	36.96
715.568	37.84
715.752	39.08
715.936	40.05
716.12	37.57
716.304	39.06
716.488	40.17
716.671	40.22
716.855	40.61
717.039	41.3
717.223	40.95
717.407	42.14
717.59	41.28
717.774	40.5
717.958	40.29
718.142	41.32
718.325	39.79
718.509	38.26
718.693	38.43
718.877	37.42
719.06	37.6
719.244	36.14
719.428	35.77
719.611	36.31
719.795	36.33
719.978	35.13
720.162	34.43
720.345	33.24
720.529	33.11
720.713	34.03
720.896	34.83
721.08	33.7
721.263	33.42
721.446	33.77
721.63	33.87
721.813	34.33
721.997	35.33
722.18	37.36
722.364	38.2
722.547	39.49
722.73	38.56
722.914	38.66
723.097	39.66
723.28	40.22
723.464	39.02
723.647	38.67
723.83	37.55
724.013	37.29
724.197	36.93
724.38	36.93
724.563	36.56
724.746	37.04
724.929	35.39
725.112	34.38
725.296	34.59
725.479	33.41
725.662	31.92
725.845	32.67
726.028	32.17
726.211	32.42
726.394	33.01
726.577	33.22
726.76	33.05
726.943	32.45
727.126	32.89
727.309	33.26
727.492	34.44
727.675	35.38
727.858	35.73
728.041	36.83
728.224	35.85
728.407	37.43
728.589	37.55
728.772	37.96
728.955	41.74
729.138	42.57
729.321	41.08
729.503	42.24
729.686	43.13
729.869	43.48
730.052	41.65
730.234	40.7
730.417	38.89
730.6	39.48
730.782	38.67
730.965	37.47
731.148	38.56
731.33	41.67
731.513	40.69
731.695	38.71
731.878	37.52
732.061	38.45
732.243	38.84
732.426	38.71
732.608	39.06
732.791	39.22
732.973	38.41
733.156	37.13
733.338	36.84
733.52	36.57
733.703	37.31
733.885	37.22
734.068	39.31
734.25	39.61
734.432	40.13
734.615	41.02
734.797	39.39
734.979	40.27
735.162	38.45
735.344	36.27
735.526	35.93
735.708	38.17
735.891	39.36
736.073	37.66
736.255	36.44
736.437	36.22
736.619	33.67
736.802	37.28
736.984	37.31
737.166	39.89
737.348	41.91
737.53	42.29
737.712	41.28
737.894	39.07
738.076	37.9
738.258	39.15
738.44	40.98
738.622	41.27
738.804	38.66
738.986	37.07
739.168	34.82
739.35	34.19
739.532	35.31
739.714	34.85
739.896	35.48
740.078	33.87
740.259	33.6
740.441	32.21
740.623	34.98
740.805	35.03
740.987	37.09
741.168	37.85
741.35	37.71
741.532	36.91
741.714	37.56
741.895	41.6
742.077	43.85
742.259	44.81
742.44	42.54
742.622	41.85
742.804	43.97
742.985	43.6
743.167	43.98
743.348	40.9
743.53	41.08
743.711	39.17
743.893	37.92
744.075	36.81
744.256	35.03
744.438	36.04
744.619	34.26
744.8	34.75
744.982	33.31
745.163	34.54
745.345	36.87
745.526	36.22
745.707	37.19
745.889	35.95
746.07	38.16
746.252	39.71
746.433	40.93
746.614	40.44
746.795	40
746.977	44.52
747.158	43.57
747.339	44.5
747.52	43.26
747.702	44.61
747.883	41.34
748.064	41.93
748.245	38.13
748.426	37.96
748.607	36.9
748.788	36.73
748.97	32.04
749.151	31.66
749.332	30.59
749.513	30.15
749.694	30.21
749.875	32.2
750.056	31.5
750.237	32.77
750.418	32.91
750.599	34.05
750.78	34.98
750.96	33.89
751.141	34.02
751.322	35.23
751.503	36.38
751.684	34.59
751.865	37.2
752.046	37.33
752.226	38.88
752.407	41.08
752.588	40.47
752.769	40.11
752.949	41.6
753.13	42.43
753.311	43.59
753.492	43.01
753.672	45.05
753.853	44.9
754.034	45.07
754.214	44.28
754.395	42.17
754.575	42.32
754.756	36.68
754.937	39.67
755.117	42.61
755.298	39.05
755.478	41.34
755.659	40.32
755.839	42.69
756.02	42.2
756.2	44.85
756.381	43.76
756.561	44.29
756.741	50.01
756.922	46.82
757.102	42.26
757.283	43.35
757.463	44.32
757.643	43.12
757.823	38.05
758.004	37.45
758.184	37.06
758.364	37.98
758.545	37.87
758.725	34.07
758.905	32.75
759.085	36.38
759.265	37.76
759.446	32.94
759.626	35.02
759.806	36.5
759.986	38.28
760.166	35.99
760.346	35.03
760.526	36.4
760.706	37.81
760.886	36.67
761.066	37.91
761.246	37.42
761.426	40.59
761.606	39.21
761.786	38.91
761.966	36.35
762.146	38.13
762.326	40.3
762.506	38.36
762.686	40.09
762.866	41.83
763.046	40.76
763.225	39.71
763.405	39.55
763.585	39.77
763.765	39.7
763.945	42.03
764.124	41.76
764.304	40.55
764.484	41.04
764.664	39.2
764.843	37.55
765.023	37.51
765.203	39.63
765.382	38.39
765.562	39.68
765.741	40.9
765.921	39.88
766.101	38.86
766.28	40.66
766.46	42.34
766.639	44.3
766.819	44.3
766.998	45
767.178	45.51
767.357	45.42
767.537	44.09
767.716	40.5
767.896	41.5
768.075	40.85
768.254	38.1
768.434	39.56
768.613	36.43
768.792	37.97
768.972	37.62
769.151	35.05
769.33	37.31
769.51	34.8
769.689	40.22
769.868	37.14
770.047	37.07
770.226	37.53
770.406	41.03
770.585	44.2
770.764	44.81
770.943	44.83
771.122	47.66
771.301	44.75
771.48	43.73
771.66	41.99
771.839	43.04
772.018	45.06
772.197	45.56
772.376	39.11
772.555	36.22
772.734	33.33
772.913	32.97
773.092	32.19
773.271	35.87
773.449	40.97
773.628	38.17
773.807	39.17
773.986	39.89
774.165	38.39
774.344	39.83
774.523	43.81
774.701	49.42
774.88	45.52
775.059	44.69
775.238	43.1
775.417	41.09
775.595	45.7
775.774	44.68
775.953	40.07
776.131	42.29
776.31	41.94
776.489	39.86
776.667	37.23
776.846	40.79
777.025	40.46
777.203	40.3
777.382	38.49
777.56	37.55
777.739	35.55
777.917	38.68
778.096	36.62
778.274	38.65
778.453	39.96
778.631	40
778.81	38.85
778.988	39.22
779.166	42.02
779.345	43.62
779.523	37.92
779.702	39.02
779.88	41.49
780.058	44.81
780.237	44.32
780.415	43.41
780.593	44.86
780.771	40.46
780.95	42.42
781.128	37.73
781.306	38.52
781.484	41.83
781.662	47.55
781.841	48.01
782.019	46.44
782.197	42.91
782.375	39.05
782.553	40.37
782.731	43.76
782.909	42.09
783.087	41.72
783.265	43.14
783.443	49.84
783.621	44.58
783.799	42.42
783.977	45.49
784.155	45.51
784.333	48.81
784.511	47.54
784.689	52.7
784.867	53.63
785.045	56.73
785.223	56
785.4	50.05
785.578	51.17
785.756	49.78
785.934	44.26
786.112	42.45
786.289	38.32
786.467	39.34
786.645	35.5
786.823	33.07
787	30.94
787.178	30.7
787.356	33.08
787.533	28.1
787.711	24.39
787.889	25.65
788.066	28.77
788.244	31.34
788.421	29.17
788.599	33.07
788.776	35.26
788.954	35.06
789.131	32.97
789.309	31.54
789.486	34.66
789.664	35.52
789.841	34.08
790.019	34.61
790.196	33.52
790.373	34.16
790.551	32.69
790.728	34.17
790.906	33.15
791.083	34.51
791.26	35.82
791.437	38.63
791.615	41.14
791.792	43.35
791.969	42.6
792.146	45.82
792.324	48.55
792.501	47.9
792.678	45.5
792.855	47.52
793.032	48.33
793.209	42.24
793.387	40.34
793.564	40.27
793.741	38.75
793.918	39.92
794.095	38.14
794.272	34.9
794.449	34.86
794.626	35.06
794.803	35.73
794.98	41.22
795.157	43.02
795.334	44.06
795.511	43.14
795.688	41.32
795.864	44.17
796.041	41.18
796.218	41.84
796.395	40.38
796.572	43.93
796.749	45.2
796.925	40.24
797.102	40.48
797.279	42.35
797.456	41.72
797.632	41.19
797.809	34.5
797.986	36.75
798.162	39.37
798.339	42.09
798.516	42.66
798.692	42.38
798.869	40.64
799.046	42.84
799.222	41.87
799.399	42.12
799.575	42
799.752	45.49
799.928	46.16
800.105	43.71
800.281	41.13
800.458	39.45
800.634	38.97
800.811	41.22
800.987	43.5
801.163	40.23
801.34	40.38
801.516	39.71
801.692	34.44
801.869	29.68
802.045	28.09
802.221	26.53
802.398	24.99
802.574	30.03
802.75	28.68
802.926	19.78
803.103	22.42
803.279	21.66
803.455	23.44
803.631	23.65
803.807	28.4
803.983	25.05
804.16	22.12
804.336	13.3
804.512	8.17
804.688	6.92
804.864	18.81
805.04	15.3
805.216	15.48
805.392	14.42
805.568	15.16
805.744	18.15
805.92	21.94
806.096	22.41
806.272	32.07
806.448	27.38
806.623	23.78
806.799	19.29
806.975	18.48
807.151	18.48
807.327	20.58
807.503	25.99
807.678	22.99
807.854	25.38
808.03	34.22
808.206	32.41
808.381	31.8
808.557	31.64
808.733	34.14
808.908	35.93
809.084	35.64
809.26	36.1
809.435	34.95
809.611	34.94
809.787	34.21
809.962	31.39
810.138	30.05
810.313	31.37
810.489	33.62
810.664	31.86
810.84	29.38
811.015	36.66
811.191	38.83
811.366	36.53
811.542	38.52
811.717	35.8
811.892	32.1
812.068	34.93
812.243	37.94
812.419	34.86
812.594	35.8
812.769	41.31
812.944	34.85
813.12	30.92
813.295	34.63
813.47	34.72
813.645	33.12
813.821	37.55
813.996	39.32
814.171	36.79
814.346	38.4
814.521	32.92
814.697	31.12
814.872	31.99
815.047	29.5
815.222	24.73
815.397	25.07
815.572	32.34
815.747	24.07
815.922	20.82
816.097	13.98
816.272	14.88
816.447	26.87
816.622	30.24
816.797	25.49
816.972	32.27
817.147	35.73
817.322	35.98
817.496	39.67
817.671	49.5
817.846	44.76
818.021	52.55
818.196	65.93
818.371	57.68
818.545	52.73
818.72	52.56
818.895	53.04
819.069	52.72
819.244	49.33
819.419	45.3
819.594	39.77
819.768	42.49
819.943	42.61
820.117	40.2
820.292	42.01
820.467	41.39
820.641	39.73
820.816	38.66
820.99	36.78
821.165	37.24
821.339	36.9
821.514	37.9
821.688	37.11
821.863	36.69
822.037	37.21
822.212	36.78
822.386	37.78
822.56	37.6
822.735	37.59
822.909	38.56
823.084	39.03
823.258	39.56
823.432	39.57
823.606	40.07
823.781	40.88
823.955	40.27
824.129	41.17
824.303	39.66
824.478	43.21
824.652	44.37
824.826	44.78
825	43.77
825.174	41.79
825.348	41.59
825.523	41.57
825.697	40.52
825.871	39.13
826.045	38.44
826.219	38.32
826.393	37.65
826.567	38.17
826.741	38.29
826.915	39.21
827.089	40.78
827.263	41.33
827.437	42.19
827.611	43.59
827.784	42.6
827.958	42.48
828.132	45.19
828.306	41.12
828.48	34.91
828.654	31.31
828.827	30.32
829.001	27.76
829.175	26.77
829.349	20.34
829.522	15.97
829.696	17.14
829.87	14.07
830.044	13.83
830.217	16.24
830.391	22.7
830.565	26.22
830.738	21.74
830.912	20.42
831.085	22.36
831.259	28.45
831.432	26.65
831.606	23.96
831.779	27.18
831.953	22.37
832.126	25.29
832.3	21.78
832.473	26.7
832.647	30.06
832.82	35.61
832.994	36.77
833.167	37.15
833.34	38.26
833.514	38.83
833.687	37.03
833.86	37.9
834.034	37.78
834.207	39.82
834.38	35.98
834.553	35.67
834.727	33.45
834.9	30.62
835.073	29.16
835.246	28.94
835.419	27.8
835.593	29.06
835.766	27.01
835.939	26.59
836.112	26.64
836.285	26.94
836.458	32.2
836.631	32.56
836.804	31.32
836.977	32.52
837.15	31.36
837.323	39.12
837.496	36.27
837.669	44.63
837.842	41.64
838.015	41.03
838.188	37.41
838.361	28.29
838.533	26.65
838.706	24.26
838.879	26.77
839.052	34.06
839.225	18.88
839.398	11.33
839.57	6.42
839.743	7.28
839.916	16.65
840.088	19
840.261	24.06
840.434	18.74
840.607	25.63
840.779	18.84
840.952	12.06
841.124	21.99
841.297	25.45
841.47	28.03
841.642	32.95
841.815	24.76
841.987	39.51
842.16	45.18
842.332	53.54
842.505	45.74
842.677	50.69
842.85	57.46
843.022	48.25
843.194	42.27
843.367	28.83
843.539	30.32
843.712	28.05
843.884	8.48
844.056	-0.57
844.229	-14.2
844.401	-11.16
844.573	-6.94
844.745	-32.31
844.918	-40.92
845.09	-18.07
845.262	-26.84
845.434	-27.78
845.606	-23.04
845.779	-25.66
845.951	-69.96
846.123	-61.27
846.295	-49.99
846.467	-5.71
846.639	25.46
846.811	24.95
846.983	42.64
847.155	57.76
847.327	44.03
847.499	34.3
847.671	43.6
847.843	45.39
848.015	47.85
848.187	40.17
848.359	24.34
848.531	8.93
848.703	19.69
848.875	9.45
849.047	23.64
849.218	38.95
849.39	43.96
849.562	43.34
849.734	43.69
849.905	52.59
850.077	48.82
850.249	58.84
850.421	61.56
850.592	51.37
850.764	60.06
850.936	57.27
851.107	50.99
851.279	62.59
851.451	52.3
851.622	64.76
851.794	46.36
851.965	53.96
852.137	69.1
852.308	83.64
852.48	100.8
852.651	97.92
852.823	91.39
852.994	69.85
853.166	50.35
853.337	50.39
853.509	39.72
853.68	42.64
853.851	41.49
854.023	27.82
854.194	14.3
854.365	-30.93
854.537	-20.75
854.708	-35.24
854.879	-24.46
855.05	-3.12
855.222	-20.74
855.393	-14.37
855.564	-12.46
855.735	-15.52
855.906	-11.39
856.078	3.22
856.249	29.75
856.42	35.25
856.591	57.67
856.762	59.12
856.933	59.02
857.104	55.53
857.275	62.67
857.446	80.85
857.617	72.03
857.788	67.56
857.959	46.59
858.13	38.2
858.301	22.9
858.472	-4.37
858.643	-15.09
858.814	-9.01
858.985	-29.52
859.155	-35.98
859.326	-58
859.497	-36.34
859.668	-30.27
859.839	-25.88
860.009	-26.36
860.18	2.49
860.351	29.53
860.522	34.21
860.692	33.23
860.863	49.49
861.034	50.54
861.204	72.91
861.375	81.4
861.546	77.77
861.716	68.94
861.887	61.16
862.057	46.61
862.228	18.64
862.398	12.86
862.569	31.98
862.739	34.37
862.91	48.63
863.08	43.45
863.251	36.73
863.421	44.8
863.592	50.62
863.762	55.81
863.932	55.14
864.103	64.67
864.273	56.44
864.443	47.13
864.614	35.34
864.784	18.88
864.954	17.33
865.125	9.23
865.295	-12.37
865.465	-10.27
865.635	-12.06
865.805	-29.01
865.976	-32.64
866.146	-13.56
866.316	-37.15
866.486	-32.36
866.656	-19.09
866.826	-21.77
866.996	-28.55
867.166	-13.87
867.336	-12.15
867.506	-12.08
867.676	24.14
867.846	37.68
868.016	29.06
868.186	39.55
868.356	39.51
868.526	44.75
868.696	66.03
868.866	69.58
869.036	113.16
869.206	130.81
869.376	131.99
869.545	220.89
869.715	131.91
869.885	163.8
870.055	113.93
870.224	59.7
870.394	112.89
870.564	131.86
870.734	250.34
870.903	-358.18
871.073	-282.14
871.243	-193.35
871.412	-90.4
871.582	-84.36
871.751	-74.93
871.921	-12.04
872.091	-5.16
872.26	-2.66
872.43	18.66
872.599	37.61
872.769	62.51
872.938	65.01
873.108	73.75
873.277	71.21
873.446	71.85
873.616	84.06
873.785	92.32
873.955	108.72
874.124	145.09
874.293	155.93
874.463	111.21
874.632	89.53
874.801	67.79
874.971	61.18
875.14	60.84
875.309	79.46
875.478	77.88
875.647	61.47
875.817	37.86
875.986	28.43
876.155	28.34
876.324	12.99
876.493	21.17
876.662	12.89
876.831	6.86
877	19.04
877.17	15.41
877.339	12.21
877.508	-2.86
877.677	-2.81
877.846	3.05
878.015	17.03
878.184	34.53
878.352	37.74
878.521	38.32
878.69	47.59
878.859	30.98
879.028	33.77
879.197	30.48
879.366	41.98
879.534	50.05
879.703	39.09
879.872	44.58
880.041	49.13
880.21	42.37
880.378	52.2
880.547	53.25
880.716	48.44
880.884	41.33
881.053	45.99
881.222	47.47
881.39	43.44
881.559	43.96
881.727	37.38
881.896	34.59
882.065	33.66
882.233	30.97
882.402	29.4
882.57	32.72
882.739	31.55
882.907	27.27
883.076	26.06
883.244	26.41
883.412	24.28
883.581	27.87
883.749	29.32
883.918	33.55
884.086	33.3
884.254	35.91
884.423	36.49
884.591	37.38
884.759	41.29
884.927	41.09
885.096	38.36
885.264	43.22
885.432	35.97
885.6	33.35
885.769	18.37
885.937	28.96
886.105	24.72
886.273	6.24
886.441	17.9
886.609	-4.78
886.777	-31.29
886.945	-0.78
887.113	8.84
887.281	23.44
887.449	19.94
887.617	24.84
887.785	-0.6
887.953	-24.85
888.121	-15.64
888.289	-43.39
888.457	-27.4
888.625	-28.99
888.793	-39
888.961	-69.29
889.129	-102.33
889.296	-74.41
889.464	-92.81
889.632	-84.83
889.8	-81.92
889.967	-53.12
890.135	-57.14
