Data from JASIL_3077_Reflection_01.txt Node
Date: Mon Nov 09 11:47:58 EST 2015
User: Geneva
Spectrometer: USB4E03002
Autoset integration time: false
Trigger mode: 4
Integration Time (sec): 1.000000E-1
Scans to average: 10
Electric dark correction enabled: false
Nonlinearity correction enabled: false
Boxcar width: 5
Stray light correction enabled: false
XAxis mode: Wavelengths
Stop averaging: false
Number of Pixels in Spectrum: 3648
>>>>>Begin Spectral Data<<<<<
177.575	-14.17
177.794	947.37
178.014	-283.67
178.233	-40.46
178.452	-115.94
178.672	-54.55
178.891	-27.8
179.11	-193.75
179.33	-121.23
179.549	-84.64
179.768	-188.02
179.987	-53.9
180.207	10.52
180.426	-10.96
180.645	-27.67
180.864	-10.92
181.084	-34.17
181.303	-119.43
181.522	-83.33
181.741	-4200
181.96	295.39
182.179	696.92
182.398	189.08
182.618	154.2
182.837	185.71
183.056	267.2
183.275	1461.11
183.494	-437.68
183.713	-16825
183.932	-6000
184.151	-352.94
184.37	-123.14
184.589	-74.17
184.808	-81.53
185.027	-45.8
185.246	-95.87
185.465	-54.59
185.684	-84.83
185.903	-511.7
186.122	-928.3
186.341	-398.84
186.56	-1018.42
186.779	178.87
186.998	314.61
187.216	1140
187.435	268.84
187.654	-4471.43
187.873	-833.33
188.092	-366
188.311	-97.93
188.53	-81.78
188.748	-64.49
188.967	11.38
189.186	-27.8
189.405	-13.56
189.623	-4.21
189.842	-7.25
190.061	-5.06
190.28	-63.13
190.498	-227.27
190.717	-67.67
190.936	-12.92
191.154	-3.54
191.373	-167.83
191.592	-118.88
191.81	-105.75
192.029	3.52
192.248	1.35
192.466	-12.04
192.685	14.81
192.904	18.02
193.122	31.99
193.341	46.35
193.559	43.18
193.778	65.02
193.996	96.94
194.215	81.53
194.433	125.85
194.652	138.38
194.87	170.38
195.089	141.04
195.307	319.59
195.526	355.56
195.744	591.43
195.963	242.66
196.181	261.29
196.399	73.78
196.618	78.06
196.836	51.57
197.055	-19.77
197.273	-55.52
197.491	28
197.71	39.38
197.928	49.59
198.146	19.7
198.365	-51.96
198.583	-70.38
198.801	-78.42
199.019	-71.14
199.238	-280.56
199.456	-89.91
199.674	112.5
199.892	-445.45
200.111	123.38
200.329	-566.67
200.547	14.2
200.765	75.88
200.983	98.9
201.202	148.29
201.42	109.75
201.638	81.03
201.856	71.17
202.074	42.55
202.292	30.71
202.51	41.67
202.728	27.83
202.946	45.29
203.165	35.69
203.383	33.28
203.601	19.55
203.819	8.86
204.037	8.48
204.255	10.16
204.473	4.4
204.691	13.32
204.909	-30.09
205.127	-2.35
205.345	-22.63
205.562	-38.15
205.78	-32.95
205.998	-48.03
206.216	-30.02
206.434	-59.24
206.652	-53.51
206.87	-39.81
207.088	-35.08
207.306	-29.86
207.523	-17.74
207.741	12.66
207.959	-639.39
208.177	287.5
208.395	-25
208.612	-2411.11
208.83	2.44
209.048	117.48
209.266	8566.67
209.483	-281.82
209.701	-104.33
209.919	-17.05
210.136	52.75
210.354	259.68
210.572	496.08
210.79	-116.52
211.007	-289.06
211.225	-104.81
211.442	-14.55
211.66	29.07
211.878	51.29
212.095	-64.52
212.313	8.97
212.53	487.88
212.748	-83.33
212.966	20
213.183	-375
213.401	53.15
213.618	144.34
213.836	318.69
214.053	231.58
214.271	426.92
214.488	279.44
214.705	166.57
214.923	236.33
215.14	276.52
215.358	223.19
215.575	182.92
215.793	217.21
216.01	364.89
216.227	216.59
216.445	232.38
216.662	300.97
216.879	148.08
217.097	176.51
217.314	183.04
217.531	-130.68
217.749	-406.25
217.966	3370
218.183	-25400
218.4	249.07
218.618	-56.86
218.835	558.82
219.052	52.71
219.269	158.29
219.487	138.07
219.704	1128
219.921	478.79
220.138	-244.74
220.355	-201.61
220.572	-24.41
220.79	25.56
221.007	44.28
221.224	110.17
221.441	72.38
221.658	54.78
221.875	64.1
222.092	100.43
222.309	87.9
222.526	86.62
222.743	58.56
222.96	31.49
223.177	43.19
223.394	14.12
223.611	3.96
223.828	2.3
224.045	-2.69
224.262	-19.07
224.479	-41.47
224.696	-43.62
224.913	-58.72
225.13	-84.15
225.347	-53.64
225.564	-65.08
225.781	-64.08
225.997	-70.53
226.214	-59.78
226.431	-44.93
226.648	-40.1
226.865	-26.46
227.082	-23.07
227.298	-21.57
227.515	-14.76
227.732	-13.44
227.949	-14.56
228.165	-12.96
228.382	-8.2
228.599	-4.94
228.816	-3.8
229.032	-1.61
229.249	-4.81
229.466	-5.37
229.682	-7.01
229.899	-13.93
230.116	-14.97
230.332	-6.77
230.549	-10.87
230.765	-7.68
230.982	-15.32
231.199	-23.71
231.415	-35.63
231.632	-28.04
231.848	-17.86
232.065	-7.8
232.281	3.88
232.498	-1.44
232.714	-15.3
232.931	-15.23
233.147	-19.68
233.364	-7.4
233.58	0.99
233.797	-4.8
234.013	-6.08
234.23	-2.08
234.446	-1.45
234.662	4.94
234.879	-5.15
235.095	7.2
235.312	12.47
235.528	21.78
235.744	9.75
235.961	-1.55
236.177	13.02
236.393	10.6
236.61	-6.65
236.826	-7.03
237.042	-26.26
237.258	-8.93
237.475	-22.78
237.691	-23.69
237.907	-27.88
238.123	-24.45
238.339	-15.54
238.556	-26.29
238.772	-22.54
238.988	-12.96
239.204	-27.8
239.42	-12.81
239.636	-13.37
239.853	-5.7
240.069	0.59
240.285	-1.6
240.501	-3.23
240.717	-1.97
240.933	0.7
241.149	-3.4
241.365	-4.48
241.581	-1.47
241.797	-4.47
242.013	-4.74
242.229	-2.01
242.445	-8.02
242.661	-5.99
242.877	-7.74
243.093	-11.12
243.309	-9.6
243.525	-5.63
243.741	-1.2
243.957	2.22
244.173	-0.98
244.388	3.38
244.604	0
244.82	1.86
245.036	-2.02
245.252	2.14
245.468	1.65
245.683	0.75
245.899	3.96
246.115	3.85
246.331	4.11
246.547	5.87
246.762	4.83
246.978	4.63
247.194	2.56
247.409	5.69
247.625	5.42
247.841	4.59
248.057	3.6
248.272	-4.34
248.488	-12.35
248.703	-19.32
248.919	-18.62
249.135	-18.68
249.35	-16.25
249.566	-3.37
249.782	-7.6
249.997	-9.96
250.213	-5.39
250.428	-8.44
250.644	-0.63
250.859	6.71
251.075	11.39
251.29	10.4
251.506	8.76
251.721	6.77
251.937	3.04
252.152	3.96
252.368	3.62
252.583	4.9
252.798	13.65
253.014	14.56
253.229	10.93
253.445	7.29
253.66	6.98
253.875	5.82
254.091	7.35
254.306	6.75
254.521	5.2
254.737	0.75
254.952	0.65
255.167	-2.09
255.383	0.26
255.598	-0.08
255.813	1.82
256.028	0.41
256.244	-6.4
256.459	-4.81
256.674	-5.83
256.889	-2.69
257.104	3.83
257.32	4.22
257.535	3.46
257.75	-2.44
257.965	-3.86
258.18	-4.15
258.395	-4.6
258.61	-0.82
258.826	-0.46
259.041	-1.5
259.256	-2.29
259.471	-4.22
259.686	-5.53
259.901	-5.47
260.116	-3.67
260.331	-3.36
260.546	-4.16
260.761	-0.45
260.976	-4.35
261.191	-7.32
261.406	-2.48
261.621	-2.01
261.836	-0.11
262.05	-4.35
262.265	-5.13
262.48	-4.41
262.695	-0.96
262.91	0.7
263.125	-1.92
263.34	3.16
263.555	2.08
263.769	-2.47
263.984	-0.42
264.199	-6.1
264.414	2.02
264.629	4.4
264.843	10.15
265.058	4.26
265.273	2.69
265.488	-0.63
265.702	-2.52
265.917	0.38
266.132	-0.07
266.346	0
266.561	5.68
266.776	9.97
266.99	4.68
267.205	-0.16
267.42	2.99
267.634	2.38
267.849	3.03
268.063	1.01
268.278	-1.49
268.492	-2.33
268.707	-4.17
268.922	-4.1
269.136	-15.47
269.351	-8.27
269.565	-5.57
269.78	-7.07
269.994	-6.91
270.209	-7.07
270.423	-1.74
270.637	-2.25
270.852	-2.05
271.066	-1.11
271.281	-3.7
271.495	-1.54
271.709	-5.32
271.924	-10.71
272.138	-8.06
272.353	-7.51
272.567	-1.81
272.781	-4.01
272.996	-1.91
273.21	0.61
273.424	-3.9
273.638	-4.97
273.853	-3.54
274.067	-3.71
274.281	-2.41
274.495	-4.22
274.71	1.22
274.924	-5.56
275.138	-9
275.352	-14.16
275.566	-19.51
275.781	-17.08
275.995	-11.18
276.209	-11.75
276.423	-6.66
276.637	-2
276.851	-0.63
277.065	-3.42
277.279	-2.79
277.493	-0.61
277.707	0.72
277.921	1.45
278.135	4.3
278.349	-0.37
278.563	-1.29
278.777	-3.73
278.991	-5.97
279.205	-5.79
279.419	-10.97
279.633	-13.49
279.847	-11.68
280.061	-8.1
280.275	-5.15
280.489	-3.82
280.703	-3.72
280.917	-0.89
281.131	-1.73
281.344	-1.69
281.558	-5.88
281.772	-4.44
281.986	-0
282.2	-1.86
282.414	-5.16
282.627	-6.17
282.841	-8.66
283.055	-8.78
283.269	-12
283.482	-11.24
283.696	-11.09
283.91	-6.52
284.123	-6.63
284.337	-8.05
284.551	-7.86
284.764	-5.18
284.978	-4.37
285.192	-6.16
285.405	-4.94
285.619	-5.86
285.833	-3.33
286.046	-2.1
286.26	-4.56
286.473	-3.76
286.687	-3.75
286.9	-0.56
287.114	-2.78
287.327	-2.74
287.541	-1.69
287.754	-0.95
287.968	0.91
288.181	-2.44
288.395	-1.86
288.608	-1.68
288.822	-1.3
289.035	-0.74
289.248	-3.12
289.462	-2.11
289.675	-4.12
289.889	-4.87
290.102	-6.27
290.315	-3.79
290.529	-4.41
290.742	-5.07
290.955	-3.57
291.169	-3.42
291.382	-3.76
291.595	-6.7
291.808	-7.31
292.022	-6.3
292.235	-4.43
292.448	-3.41
292.661	-7.74
292.875	-6.21
293.088	-4.93
293.301	-5.53
293.514	-4.22
293.727	-2.22
293.94	-1.83
294.153	1.11
294.367	2.67
294.58	2.23
294.793	1.08
295.006	3.32
295.219	2.68
295.432	0.83
295.645	0.25
295.858	-1.14
296.071	-2.8
296.284	-2.32
296.497	-2.53
296.71	-2.31
296.923	-2.46
297.136	-1.5
297.349	-3.31
297.562	-2.79
297.775	-3.87
297.988	-1.84
298.201	-1.97
298.414	-1.96
298.626	-0.55
298.839	-3.21
299.052	-4.39
299.265	-3.43
299.478	-3.9
299.691	-1.88
299.903	-2.25
300.116	-0.06
300.329	-1.25
300.542	-2.22
300.755	-2.21
300.967	-1.82
301.18	0.54
301.393	1.18
301.605	1.64
301.818	-0.1
302.031	-0.44
302.243	1.32
302.456	-1.09
302.669	0.66
302.881	3.84
303.094	1.91
303.307	4.84
303.519	3.98
303.732	1.77
303.944	2.14
304.157	4.23
304.37	4.63
304.582	2.67
304.795	5.17
305.007	1.95
305.22	3.39
305.432	4.48
305.645	4.38
305.857	1.66
306.069	2.77
306.282	2.47
306.494	2.25
306.707	-1.06
306.919	-0.66
307.132	-2.16
307.344	2.1
307.556	-1.14
307.769	-2.68
307.981	-6.65
308.193	-3.77
308.406	-2.78
308.618	-2.58
308.83	-2.34
309.043	-0.03
309.255	1.36
309.467	0.42
309.679	-1.07
309.892	-1.92
310.104	0.16
310.316	-0.52
310.528	-2.09
310.74	-3.02
310.953	-4.66
311.165	-4.74
311.377	-6.29
311.589	-7.64
311.801	-7.47
312.013	-9.04
312.225	-9.59
312.437	-13.37
312.649	-10.78
312.862	-11.53
313.074	-14.1
313.286	-15.21
313.498	-15.55
313.71	-11.42
313.922	-6.86
314.134	-5.44
314.346	-2.59
314.558	-0.48
314.77	3.84
314.982	2.12
315.193	5.1
315.405	4.71
315.617	7.71
315.829	6.13
316.041	5.39
316.253	2.88
316.465	2.68
316.677	0.2
316.888	-1.87
317.1	-0.89
317.312	0.7
317.524	-1.74
317.736	3.01
317.947	4.17
318.159	6.11
318.371	4.7
318.583	4.64
318.794	4.87
319.006	5.55
319.218	7.23
319.43	3.92
319.641	4.17
319.853	5.29
320.064	4.3
320.276	3.92
320.488	0.98
320.699	1.33
320.911	-1.17
321.123	-0.04
321.334	-1.03
321.546	1.84
321.757	4.11
321.969	2.71
322.18	2.19
322.392	3.52
322.603	2.27
322.815	3.46
323.026	2.85
323.238	3.05
323.449	2.65
323.661	3.22
323.872	0.77
324.083	-0.83
324.295	-3.14
324.506	-2.08
324.718	-3.49
324.929	-1.3
325.14	1.38
325.352	-0.71
325.563	0.65
325.774	1.71
325.986	1.7
326.197	1.1
326.408	4.44
326.62	7.96
326.831	7.08
327.042	5.71
327.253	2.92
327.464	2.52
327.676	7.44
327.887	9.89
328.098	7.33
328.309	7.32
328.52	9.65
328.732	6.1
328.943	6.41
329.154	5.43
329.365	7.16
329.576	5.95
329.787	5.19
329.998	3.2
330.209	0.15
330.42	1.03
330.631	0.55
330.842	-0.55
331.053	0.58
331.264	-3.29
331.475	-1.37
331.686	-1.12
331.897	1.98
332.108	1.35
332.319	1.5
332.53	4.67
332.741	5.31
332.952	5.84
333.163	6.78
333.374	7.08
333.585	10.91
333.795	12.04
334.006	8.97
334.217	7.8
334.428	9.24
334.639	11.39
334.849	10.55
335.06	10.69
335.271	11.83
335.482	9.17
335.692	9.26
335.903	7.2
336.114	7.24
336.325	9.67
336.535	9.25
336.746	9.82
336.957	5.17
337.167	2.85
337.378	4.2
337.589	1.25
337.799	3.99
338.01	1.69
338.22	2.23
338.431	-0.46
338.642	0.84
338.852	0.88
339.063	-0.22
339.273	1.16
339.484	2.84
339.694	4.3
339.905	6.05
340.115	5.96
340.326	8.58
340.536	7.78
340.746	6.7
340.957	5.4
341.167	7.17
341.378	6.45
341.588	5.96
341.799	4.76
342.009	2.87
342.219	3.62
342.43	3.03
342.64	2.7
342.85	3.37
343.061	6.12
343.271	6.65
343.481	7.2
343.691	6.65
343.902	8.44
344.112	6.16
344.322	5.77
344.532	4.18
344.743	2.98
344.953	2.13
345.163	2.83
345.373	2.98
345.583	2.98
345.793	-0.06
346.004	1.38
346.214	1.71
346.424	2.25
346.634	3.82
346.844	5.56
347.054	9.07
347.264	8.8
347.474	8.1
347.684	5.35
347.894	4.45
348.104	3.49
348.314	2.04
348.524	-0.28
348.734	1.54
348.944	-0.85
349.154	-1.04
349.364	-2.08
349.574	-1.13
349.784	-2.49
349.994	0.56
350.204	0.87
350.413	0.74
350.623	0.39
350.833	1.79
351.043	2.53
351.253	3.7
351.463	3.37
351.672	1.28
351.882	1.78
352.092	1.96
352.302	0.58
352.511	0.49
352.721	-0.05
352.931	-0.92
353.141	-0.67
353.35	-0.19
353.56	1.62
353.77	2.34
353.979	2.71
354.189	1.43
354.399	2.43
354.608	3.44
354.818	6.55
355.027	9.99
355.237	12.5
355.447	13.85
355.656	12.67
355.866	10.85
356.075	9.68
356.285	11.22
356.494	12.1
356.704	11.74
356.913	11.62
357.123	10.18
357.332	7.71
357.542	6.2
357.751	4.04
357.96	2.16
358.17	3.19
358.379	3.22
358.589	2.64
358.798	3.36
359.007	3.47
359.217	3.65
359.426	2.81
359.635	5.27
359.845	6.55
360.054	6.9
360.263	8.5
360.472	7.2
360.682	7.9
360.891	7.37
361.1	4.96
361.309	4.05
361.519	3.33
361.728	2.49
361.937	1.73
362.146	1.97
362.355	1.8
362.564	2.82
362.774	2.52
362.983	3.73
363.192	3.7
363.401	5.43
363.61	7.24
363.819	9.57
364.028	11.61
364.237	10.9
364.446	9.37
364.655	9.23
364.864	8.85
365.073	11.01
365.282	9.57
365.491	9.69
365.7	10.25
365.909	9.9
366.118	7.85
366.327	7.88
366.536	8.17
366.745	7.74
366.954	7.98
367.162	8.55
367.371	5.3
367.58	5.75
367.789	5.93
367.998	4.28
368.207	4.26
368.415	4.71
368.624	1.84
368.833	1.35
369.042	1.11
369.25	2.27
369.459	1.34
369.668	4.77
369.877	3.78
370.085	2.83
370.294	4.56
370.503	5.18
370.711	6.09
370.92	7.24
371.129	7.87
371.337	8.83
371.546	8.1
371.754	9.61
371.963	7.92
372.171	8.47
372.38	8.7
372.589	9.5
372.797	7.49
373.006	6.59
373.214	6.91
373.423	8.47
373.631	7.74
373.84	6.79
374.048	3.99
374.256	3.38
374.465	3.89
374.673	4.97
374.882	3.56
375.09	4.72
375.298	4.33
375.507	3.51
375.715	0.92
375.923	1.96
376.132	2.81
376.34	3.75
376.548	3.95
376.757	3.54
376.965	3.91
377.173	4.37
377.381	4.71
377.59	5.2
377.798	6.75
378.006	5.96
378.214	6.55
378.423	6.27
378.631	6.08
378.839	6.15
379.047	6.05
379.255	5.96
379.463	5.71
379.671	7.15
379.879	6.44
380.088	4.46
380.296	6.14
380.504	4.8
380.712	4.97
380.92	5.02
381.128	5.7
381.336	4.63
381.544	3.47
381.752	3.53
381.96	2.88
382.168	2.46
382.376	3.04
382.584	2.73
382.791	4.25
382.999	3.46
383.207	3.78
383.415	2.32
383.623	3.11
383.831	3.54
384.039	3.39
384.247	2.88
384.454	1.44
384.662	2.88
384.87	3.54
385.078	3.36
385.285	3.28
385.493	4.56
385.701	5.92
385.909	5.29
386.116	5.19
386.324	5.71
386.532	4.97
386.739	7.65
386.947	6.74
387.155	5.06
387.362	4.96
387.57	5.34
387.778	4.01
387.985	3.66
388.193	4.95
388.4	5.23
388.608	3.97
388.816	4.24
389.023	4.04
389.231	3.76
389.438	5.41
389.646	5.29
389.853	4.96
390.061	5.19
390.268	6.39
390.475	6.47
390.683	6.01
390.89	6.41
391.098	6.3
391.305	5.33
391.512	5.82
391.72	6.31
391.927	5.65
392.135	6.16
392.342	6.03
392.549	4.8
392.756	3.62
392.964	4.73
393.171	4.85
393.378	4.91
393.586	6.33
393.793	4.99
394	3.55
394.207	3.41
394.414	4.14
394.622	4.57
394.829	4.33
395.036	4.58
395.243	3.66
395.45	2.92
395.657	3.56
395.864	1.67
396.072	3.4
396.279	3.86
396.486	5.12
396.693	5.54
396.9	4.84
397.107	5.81
397.314	6.31
397.521	5.23
397.728	6.13
397.935	5.18
398.142	6.15
398.349	5.94
398.556	6.41
398.763	5.59
398.97	4.65
399.177	5.79
399.383	5.77
399.59	5.8
399.797	6.63
400.004	6.09
400.211	6.62
400.418	7.34
400.625	6.98
400.831	5.9
401.038	6.62
401.245	7.25
401.452	6.08
401.658	6.04
401.865	6.74
402.072	7.03
402.279	6.85
402.485	6.5
402.692	5.79
402.899	6.21
403.105	6.57
403.312	5.88
403.519	4.18
403.725	3.9
403.932	3.59
404.138	3.32
404.345	3.06
404.552	3.22
404.758	3.25
404.965	3.96
405.171	4.46
405.378	5.35
405.584	6.34
405.791	7.43
405.997	7.05
406.204	7.04
406.41	7.44
406.617	7.33
406.823	7.82
407.029	7.95
407.236	7.41
407.442	7.19
407.649	5.91
407.855	5.46
408.061	5.53
408.268	6.2
408.474	5.51
408.68	5.73
408.887	5.73
409.093	4.62
409.299	4.29
409.505	3.83
409.712	4.43
409.918	4.36
410.124	4.32
410.33	4.19
410.537	3.92
410.743	4.35
410.949	3.74
411.155	3.35
411.361	4.19
411.567	4.63
411.773	5.13
411.98	4.64
412.186	5.88
412.392	4.7
412.598	5.02
412.804	5.12
413.01	4.67
413.216	4.1
413.422	5.09
413.628	4.93
413.834	5.34
414.04	4.75
414.246	4.41
414.452	3.63
414.658	4.25
414.864	4.16
415.07	4.68
415.275	5.39
415.481	6.29
415.687	6.26
415.893	6.71
416.099	6.64
416.305	6.96
416.511	6.92
416.716	7.92
416.922	8.42
417.128	8.92
417.334	9.14
417.539	9.56
417.745	8.98
417.951	9.03
418.157	8.67
418.362	8.19
418.568	7.91
418.774	7.67
418.979	6.86
419.185	6.63
419.391	6.07
419.596	5.96
419.802	5.88
420.008	6.37
420.213	5.84
420.419	6.13
420.624	6.44
420.83	6.66
421.035	6.89
421.241	7.51
421.446	7.42
421.652	7.79
421.857	7.88
422.063	7.12
422.268	6.8
422.474	7.29
422.679	7.62
422.885	7.38
423.09	7.21
423.295	7.11
423.501	6.9
423.706	7.24
423.911	6.88
424.117	6.39
424.322	6.7
424.527	6.72
424.733	6.66
424.938	5.93
425.143	6.54
425.349	7.12
425.554	7.14
425.759	7.35
425.964	7.23
426.169	7.99
426.375	8.22
426.58	8.79
426.785	8.67
426.99	8.03
427.195	7.75
427.4	7.11
427.605	7.09
427.811	7.05
428.016	7.3
428.221	7.49
428.426	6.81
428.631	7.11
428.836	7.2
429.041	7.24
429.246	7.57
429.451	8.05
429.656	7.41
429.861	7.51
430.066	7.56
430.271	7.19
430.476	7.71
430.681	7.26
430.886	6.46
431.09	5.79
431.295	6.18
431.5	6.6
431.705	6.69
431.91	7.67
432.115	7.38
432.32	7.62
432.524	7.6
432.729	6.68
432.934	7.07
433.139	7.65
433.343	7.62
433.548	7
433.753	7.24
433.958	7.74
434.162	7.37
434.367	6.45
434.572	6.44
434.776	5.75
434.981	5.83
435.186	5.59
435.39	5.46
435.595	5.95
435.799	6.33
436.004	5.18
436.209	4.38
436.413	4.73
436.618	5.23
436.822	5.26
437.027	5.85
437.231	6.17
437.436	6.74
437.64	6.62
437.845	6.86
438.049	7.01
438.253	7.23
438.458	7.08
438.662	7.64
438.867	7.4
439.071	7.38
439.275	7.3
439.48	7.15
439.684	7.08
439.888	7.15
440.093	6.43
440.297	6.38
440.501	6.92
440.706	7.09
440.91	6.82
441.114	7.39
441.318	7.64
441.523	7.31
441.727	6.93
441.931	6.79
442.135	7.44
442.339	8.29
442.543	7.92
442.748	7.45
442.952	7.44
443.156	7.14
443.36	7.33
443.564	6.99
443.768	7.54
443.972	7.68
444.176	7.88
444.38	7.36
444.584	7.11
444.788	7.18
444.992	7.87
445.196	8.42
445.4	8.4
445.604	8.17
445.808	8.11
446.012	7.86
446.216	8.2
446.42	7.65
446.624	7.65
446.828	7.88
447.032	8.11
447.235	7.49
447.439	7.03
447.643	7.04
447.847	6.91
448.051	6.48
448.254	6.49
448.458	6.55
448.662	7.15
448.866	7.16
449.069	6.6
449.273	6.73
449.477	6.87
449.681	7.18
449.884	7.37
450.088	7.71
450.292	8.6
450.495	8.72
450.699	8.49
450.902	7.85
451.106	7.2
451.31	7.35
451.513	7.51
451.717	7.45
451.92	7.05
452.124	6.63
452.327	6.65
452.531	6.15
452.734	6.2
452.938	6.2
453.141	6.69
453.345	7.97
453.548	7.97
453.752	7.35
453.955	7.26
454.158	7.76
454.362	7.07
454.565	6.87
454.769	5.9
454.972	5.5
455.175	4.64
455.379	4.32
455.582	3.97
455.785	3.6
455.988	3.13
456.192	3.11
456.395	2.7
456.598	3.49
456.801	3.54
457.005	5.17
457.208	5.57
457.411	6.39
457.614	6.27
457.817	6.22
458.021	6.81
458.224	7.79
458.427	7.94
458.63	7.92
458.833	8.38
459.036	8.35
459.239	7.84
459.442	8.27
459.645	8.07
459.848	8.2
460.051	8.13
460.254	8.13
460.457	7.58
460.66	7.24
460.863	7.33
461.066	6.83
461.269	6.82
461.472	7.14
461.675	6.18
461.878	6.71
462.081	6.67
462.284	6.89
462.486	6.34
462.689	5.76
462.892	6.15
463.095	6.38
463.298	6.71
463.5	6.87
463.703	7.2
463.906	7.6
464.109	7.71
464.311	8.39
464.514	8.07
464.717	8.75
464.92	9.47
465.122	9.19
465.325	8.67
465.528	8.67
465.73	8.12
465.933	7.48
466.135	7.46
466.338	6.93
466.541	7.28
466.743	7.53
466.946	6.85
467.148	7.45
467.351	8.03
467.553	8.64
467.756	8.37
467.958	8.81
468.161	8.62
468.363	8.39
468.566	8.35
468.768	7.82
468.971	8.14
469.173	8.62
469.375	7.55
469.578	7.81
469.78	7.11
469.983	7.18
470.185	7.36
470.387	7.35
470.59	7.67
470.792	7.61
470.994	8.15
471.196	7.8
471.399	7.33
471.601	7.33
471.803	6.77
472.005	6.81
472.208	6.87
472.41	6.91
472.612	6.76
472.814	6.67
473.016	6.79
473.218	6.23
473.421	6.35
473.623	7.1
473.825	7.61
474.027	7.77
474.229	7.9
474.431	7.47
474.633	7.52
474.835	8.04
475.037	7.76
475.239	7.76
475.441	7.55
475.643	7.95
475.845	7.64
476.047	7.24
476.249	6.94
476.451	7.45
476.653	7.62
476.855	7.67
477.057	8.17
477.258	8.63
477.46	8.45
477.662	8.94
477.864	9
478.066	8.72
478.268	9.31
478.469	9.63
478.671	9.36
478.873	9.66
479.075	9.3
479.276	8.91
479.478	8.88
479.68	8.64
479.882	8.06
480.083	7.92
480.285	8.04
480.487	7.68
480.688	7.73
480.89	7.63
481.091	7.27
481.293	7.42
481.495	7.59
481.696	7.59
481.898	7.95
482.099	8.02
482.301	7.66
482.502	7.62
482.704	7.69
482.905	7.54
483.107	7.54
483.308	7.74
483.51	7.69
483.711	7.55
483.913	7.63
484.114	7.67
484.315	7.6
484.517	7.81
484.718	7.99
484.92	8.01
485.121	7.98
485.322	8.07
485.524	7.86
485.725	7.9
485.926	8.04
486.127	7.91
486.329	7.84
486.53	7.78
486.731	7.75
486.932	7.73
487.134	7.76
487.335	7.83
487.536	7.8
487.737	7.85
487.938	7.84
488.139	7.75
488.341	7.52
488.542	7.48
488.743	7.59
488.944	7.52
489.145	7.47
489.346	7.59
489.547	7.73
489.748	7.73
489.949	7.79
490.15	7.9
490.351	7.92
490.552	8.24
490.753	8.15
490.954	7.96
491.155	8.03
491.356	7.9
491.557	7.45
491.758	7.42
491.959	7.35
492.159	7.06
492.36	6.78
492.561	6.66
492.762	6.31
492.963	6.22
493.164	6.79
493.364	7.11
493.565	7.53
493.766	7.9
493.967	8.05
494.167	7.94
494.368	8.41
494.569	8.54
494.769	8.98
494.97	9.05
495.171	9.12
495.371	8.86
495.572	8.78
495.773	8.58
495.973	8.73
496.174	8.8
496.375	9.04
496.575	9.15
496.776	9.64
496.976	9.21
497.177	9.17
497.377	9.03
497.578	9
497.778	9.1
497.979	8.44
498.179	8.29
498.38	8.38
498.58	8.2
498.78	8.35
498.981	8.05
499.181	8.18
499.382	8.65
499.582	8.76
499.782	8.68
499.983	8.04
500.183	8.68
500.383	8.56
500.584	8.61
500.784	8.89
500.984	8.61
501.184	8.52
501.385	8.54
501.585	7.96
501.785	7.83
501.985	7.82
502.185	8.37
502.386	8.35
502.586	8.56
502.786	8.41
502.986	8.69
503.186	8.45
503.386	8.58
503.586	8.47
503.786	8.25
503.987	8.66
504.187	9.06
504.387	8.63
504.587	8.63
504.787	9.07
504.987	8.69
505.187	8.42
505.387	8.47
505.587	8.02
505.786	8.25
505.986	8.71
506.186	8.2
506.386	8.35
506.586	8.76
506.786	8.81
506.986	8.58
507.186	8.88
507.386	9.02
507.585	9.43
507.785	9.68
507.985	9.67
508.185	9.52
508.384	9.81
508.584	9.79
508.784	9.54
508.984	10.21
509.183	10.14
509.383	9.98
509.583	9.83
509.782	10.08
509.982	10.09
510.182	10.24
510.381	10.32
510.581	10.13
510.781	9.78
510.98	9.99
511.18	9.52
511.379	9.64
511.579	9.4
511.778	9.2
511.978	8.77
512.177	8.94
512.377	8.88
512.576	9.16
512.776	9.27
512.975	9.38
513.175	10.16
513.374	10.18
513.573	9.88
513.773	10.42
513.972	10.44
514.172	10.47
514.371	10.17
514.57	10.2
514.77	9.95
514.969	9.91
515.168	10.07
515.367	9.85
515.567	9.73
515.766	10.13
515.965	10.19
516.164	10.2
516.364	10.12
516.563	10.44
516.762	10.41
516.961	10.4
517.16	10.6
517.359	10.95
517.559	10.24
517.758	10.57
517.957	10.88
518.156	10.9
518.355	11.46
518.554	11.51
518.753	10.75
518.952	10.61
519.151	11.12
519.35	11.43
519.549	11.23
519.748	11.95
519.947	11.54
520.146	11.49
520.345	11.51
520.544	11.81
520.743	12.05
520.942	13.23
521.141	13.69
521.339	13.82
521.538	13.49
521.737	13.2
521.936	12.83
522.135	13.72
522.333	13.46
522.532	13.4
522.731	12.97
522.93	12.95
523.129	12.82
523.327	12.47
523.526	12.5
523.725	12.84
523.923	13.27
524.122	13.25
524.321	12.87
524.519	12.86
524.718	13.01
524.917	13
525.115	12.84
525.314	13.05
525.512	13.29
525.711	13.4
525.909	13.47
526.108	13.45
526.306	13.45
526.505	13.34
526.703	13.56
526.902	13.5
527.1	13.56
527.299	13.84
527.497	13.77
527.696	13.81
527.894	13.85
528.092	13.69
528.291	13.77
528.489	13.91
528.688	14.07
528.886	14.14
529.084	14.52
529.283	14.62
529.481	14.64
529.679	14.86
529.877	15.13
530.076	15.14
530.274	15.17
530.472	15.26
530.67	15.58
530.869	15.5
531.067	15.34
531.265	14.98
531.463	14.89
531.661	15.06
531.859	14.85
532.057	14.71
532.255	14.62
532.454	14.87
532.652	15.05
532.85	14.7
533.048	14.78
533.246	14.84
533.444	14.78
533.642	15.06
533.84	14.98
534.038	14.95
534.236	14.9
534.434	14.95
534.632	15
534.83	14.81
535.027	15.11
535.225	15.38
535.423	15.32
535.621	15.5
535.819	15.84
536.017	15.72
536.215	15.89
536.412	16
536.61	16.05
536.808	16.31
537.006	16
537.203	16.06
537.401	15.79
537.599	15.85
537.797	16.33
537.994	16
538.192	15.96
538.39	16.36
538.587	16.67
538.785	16.9
538.983	16.8
539.18	17.17
539.378	17.26
539.575	17.75
539.773	18.09
539.97	18.09
540.168	18.16
540.366	18.12
540.563	18.04
540.761	18.09
540.958	18.19
541.155	18.24
541.353	18.34
541.55	18.44
541.748	18.43
541.945	18.48
542.143	18.64
542.34	18.74
542.537	19.27
542.735	19.57
542.932	19.77
543.129	19.89
543.327	20.3
543.524	20.73
543.721	20.69
543.919	20.62
544.116	20.63
544.313	20.57
544.51	20.43
544.708	20.62
544.905	20.62
545.102	20.57
545.299	20.58
545.496	20.62
545.693	20.37
545.891	20.93
546.088	21.44
546.285	21.66
546.482	22.13
546.679	22.57
546.876	22.43
547.073	22.62
547.27	22.77
547.467	22.5
547.664	22.44
547.861	22.52
548.058	22.12
548.255	22.13
548.452	22.25
548.649	22.04
548.846	21.99
549.043	22.14
549.24	22.16
549.437	22.45
549.633	23.27
549.83	23.67
550.027	23.99
550.224	24.71
550.421	24.66
550.618	24.39
550.814	24.75
551.011	24.58
551.208	24.26
551.405	23.86
551.601	23.76
551.798	23.72
551.995	23.23
552.191	23.32
552.388	23.22
552.585	23.32
552.781	23.64
552.978	23.09
553.175	23.88
553.371	24.73
553.568	25.08
553.764	25.21
553.961	25.39
554.157	25.7
554.354	25.52
554.55	25.24
554.747	25.24
554.943	24.88
555.14	26.03
555.336	25.16
555.533	25.24
555.729	26.35
555.926	26.28
556.122	26.18
556.318	26.25
556.515	26.48
556.711	26.8
556.907	26.31
557.104	26.68
557.3	25.59
557.496	26.23
557.693	25.93
557.889	25.3
558.085	25.63
558.281	25.52
558.478	25.76
558.674	25.78
558.87	26.13
559.066	26.62
559.262	27.27
559.459	27.83
559.655	27.95
559.851	28.13
560.047	28.05
560.243	28.2
560.439	28.36
560.635	28.44
560.831	28.08
561.027	28.15
561.223	27.85
561.419	27.39
561.615	27.02
561.811	26.96
562.007	26.82
562.203	27.21
562.399	27.36
562.595	27.66
562.791	27.95
562.987	28.29
563.183	27.86
563.379	28.54
563.575	28.38
563.771	29.21
563.966	29.15
564.162	29.15
564.358	28.8
564.554	28.97
564.75	29.02
564.945	28.86
565.141	29.02
565.337	29.27
565.533	28.96
565.728	29.13
565.924	28.74
566.12	29.41
566.315	29.76
566.511	30.49
566.707	31.14
566.902	31.03
567.098	30.97
567.293	30.56
567.489	30.22
567.684	30.27
567.88	30.46
568.076	30.38
568.271	30.39
568.467	30.28
568.662	29.05
568.858	28.08
569.053	28.17
569.248	28.04
569.444	28.88
569.639	29.24
569.835	29.53
570.03	29.47
570.225	29.54
570.421	29.39
570.616	29.03
570.812	29.86
571.007	30.49
571.202	30.66
571.397	30.96
571.593	30.75
571.788	30.61
571.983	30.54
572.178	31.23
572.374	31.71
572.569	31.35
572.764	31.92
572.959	31.94
573.154	31.49
573.35	31.57
573.545	31.14
573.74	31.66
573.935	31.55
574.13	31.81
574.325	31.07
574.52	30.71
574.715	30.96
574.91	31.59
575.105	31.5
575.3	31.29
575.495	31.3
575.69	32.17
575.885	31.75
576.08	32.51
576.275	32.68
576.47	32.41
576.665	32.37
576.86	32.06
577.055	31.07
577.25	31.42
577.444	32.41
577.639	32.05
577.834	31.54
578.029	32.04
578.224	31.4
578.418	31.53
578.613	32.35
578.808	33.18
579.003	33.08
579.197	33.54
579.392	33.06
579.587	32.37
579.781	33.03
579.976	33.67
580.171	33.39
580.365	33.47
580.56	32.9
580.755	32.3
580.949	31.84
581.144	32.43
581.338	32.37
581.533	33.02
581.727	33.04
581.922	31.82
582.116	32.48
582.311	32.41
582.505	33.24
582.7	33.18
582.894	34.24
583.089	34.63
583.283	35.04
583.478	34.27
583.672	33.5
583.866	33.53
584.061	34.6
584.255	33.99
584.449	34.23
584.644	34.66
584.838	35.24
585.032	35.09
585.226	33.98
585.421	33.77
585.615	34.23
585.809	34.56
586.003	34.76
586.198	35.34
586.392	35.42
586.586	35.23
586.78	34.44
586.974	34.74
587.168	34.64
587.363	35.27
587.557	34.67
587.751	34.96
587.945	34.94
588.139	34.71
588.333	34.1
588.527	33.44
588.721	33.97
588.915	33.69
589.109	33.12
589.303	33.61
589.497	34.06
589.691	35.03
589.885	34.79
590.079	34.36
590.273	34.21
590.466	34.18
590.66	33.9
590.854	33.79
591.048	34.18
591.242	34.41
591.436	33.9
591.629	33.4
591.823	33.66
592.017	33.96
592.211	34.41
592.404	35.22
592.598	34.77
592.792	35.63
592.986	35.39
593.179	35.33
593.373	34.85
593.567	35.23
593.76	36.09
593.954	35.45
594.147	35.6
594.341	36.06
594.535	35.43
594.728	36.4
594.922	36.5
595.115	36.38
595.309	36.74
595.502	37.09
595.696	36.95
595.889	36.5
596.083	36.68
596.276	37.08
596.47	36.4
596.663	36.13
596.856	35.69
597.05	35.66
597.243	35.16
597.437	35.19
597.63	35.23
597.823	35.96
598.017	36.3
598.21	36.12
598.403	35.56
598.596	36.17
598.79	36.57
598.983	37.61
599.176	37.26
599.369	38.35
599.563	38.52
599.756	39.07
599.949	37.82
600.142	37.62
600.335	37.27
600.528	37.94
600.722	38.38
600.915	39.14
601.108	37.94
601.301	37.98
601.494	37.8
601.687	37.15
601.88	36.43
602.073	36.91
602.266	36.63
602.459	36.91
602.652	36.74
602.845	36.27
603.038	35.97
603.231	35.81
603.424	35.85
603.617	35.83
603.809	36.91
604.002	37.22
604.195	37.21
604.388	37.16
604.581	37.2
604.774	36.7
604.966	37.03
605.159	36.98
605.352	37.98
605.545	37.96
605.737	38.07
605.93	37.21
606.123	37.34
606.316	37.61
606.508	38.22
606.701	37.78
606.894	38.48
607.086	38.36
607.279	38.28
607.471	37.2
607.664	37.78
607.857	38.08
608.049	38.53
608.242	37.8
608.434	37.93
608.627	37.57
608.819	38.2
609.012	38.36
609.204	38.72
609.397	39.2
609.589	40.11
609.782	39.9
609.974	39.55
610.166	38.63
610.359	39.47
610.551	39.45
610.743	40.13
610.936	40.62
611.128	40.59
611.32	40.96
611.513	40.9
611.705	40.66
611.897	41.56
612.09	42.09
612.282	43.2
612.474	42.76
612.666	42.45
612.858	42.45
613.051	41.87
613.243	41.38
613.435	41.7
613.627	42.67
613.819	42.57
614.011	41.6
614.203	41.11
614.395	40.38
614.588	40.96
614.78	40.78
614.972	40.51
615.164	40.86
615.356	40.46
615.548	39.65
615.74	38.94
615.932	40.05
616.124	40.18
616.315	40.87
616.507	40.69
616.699	41.07
616.891	42.1
617.083	41.69
617.275	42.25
617.467	43.57
617.659	43.43
617.85	43.35
618.042	42.89
618.234	43.35
618.426	42.72
618.618	43.71
618.809	43.75
619.001	42.69
619.193	42.85
619.384	42.55
619.576	41.88
619.768	41.58
619.959	41.3
620.151	41.51
620.343	41.34
620.534	42.65
620.726	42.09
620.917	41.82
621.109	43.01
621.301	43.73
621.492	44.19
621.684	43.86
621.875	44.62
622.067	44.5
622.258	43.41
622.45	43.46
622.641	42.1
622.832	41.9
623.024	41.48
623.215	41.1
623.407	40.57
623.598	39.83
623.789	40.36
623.981	40.41
624.172	40.87
624.363	40.84
624.555	40.55
624.746	41.12
624.937	41.34
625.129	42.23
625.32	42.13
625.511	41.8
625.702	41.71
625.893	41.34
626.085	41.77
626.276	40.94
626.467	42.05
626.658	42.43
626.849	41.57
627.04	41.01
627.231	41.6
627.422	41.85
627.614	42.66
627.805	42.45
627.996	42.52
628.187	42.02
628.378	43.24
628.569	41.5
628.76	42.07
628.951	42.66
629.142	44.09
629.332	43.17
629.523	42.85
629.714	42.15
629.905	43.31
630.096	43.42
630.287	43.09
630.478	42.72
630.669	43.62
630.859	42.2
631.05	42.43
631.241	41.49
631.432	41.97
631.623	41.5
631.813	41.16
632.004	40.52
632.195	40.77
632.385	41.03
632.576	40.34
632.767	40.93
632.957	41.64
633.148	41.77
633.339	41.05
633.529	39.97
633.72	40.04
633.91	40.42
634.101	39.8
634.292	39.27
634.482	38.83
634.673	39.52
634.863	39.3
635.054	38.72
635.244	38.75
635.435	39.63
635.625	40.29
635.815	40.83
636.006	40.61
636.196	41.48
636.387	41.69
636.577	42.69
636.767	42.73
636.958	42.45
637.148	43.22
637.338	42.91
637.529	43.18
637.719	43.69
637.909	43.1
638.099	44.11
638.29	43.53
638.48	43.95
638.67	44.64
638.86	45.61
639.05	46.84
639.241	47.17
639.431	47.46
639.621	47.93
639.811	47.63
640.001	49.36
640.191	49.25
640.381	49.98
640.571	49.9
640.761	47.71
640.951	46.59
641.141	45.59
641.331	44.89
641.521	44.29
641.711	42.82
641.901	43.71
642.091	42.89
642.281	42.97
642.471	43.62
642.661	43.8
642.851	44.38
643.041	44.3
643.231	44.86
643.42	45.53
643.61	47.39
643.8	48.09
643.99	47.8
644.18	46.96
644.369	47.89
644.559	47.58
644.749	47.93
644.939	48.56
645.128	49.19
645.318	48.72
645.508	47.9
645.697	47.15
645.887	46.57
646.076	45.96
646.266	45.88
646.456	43.44
646.645	43.07
646.835	43.02
647.024	42.86
647.214	43.18
647.403	44.32
647.593	44.66
647.782	45.33
647.972	47.17
648.161	48
648.351	47.59
648.54	49.48
648.73	50.6
648.919	50.38
649.108	50.36
649.298	50.6
649.487	49.49
649.677	49.23
649.866	49.03
650.055	48.35
650.244	48.04
650.434	48.89
650.623	48.18
650.812	47.07
651.002	46.68
651.191	46.76
651.38	46.57
651.569	45.59
651.758	45.88
651.947	45.98
652.137	46.39
652.326	46.61
652.515	47.24
652.704	46.85
652.893	47
653.082	47.02
653.271	46.25
653.46	45.47
653.649	47.23
653.838	47
654.027	45.26
654.216	45.37
654.405	44.59
654.594	44.29
654.783	45.34
654.972	44.9
655.161	46.94
655.35	47.08
655.539	47.72
655.728	46.92
655.916	46.8
656.105	48
656.294	47.02
656.483	46.93
656.672	45.84
656.86	45.52
657.049	45.65
657.238	43.63
657.427	44.12
657.615	43.6
657.804	43.97
657.993	43.7
658.181	42.65
658.37	43.06
658.559	43.36
658.747	44.54
658.936	44.48
659.125	45.73
659.313	46.43
659.502	47.5
659.69	47.39
659.879	47.07
660.067	48.33
660.256	49.71
660.444	48.86
660.633	48.98
660.821	48.81
661.01	49.28
661.198	49.02
661.387	49.49
661.575	48.42
661.763	49.98
661.952	50.33
662.14	50.47
662.328	50.13
662.517	52.4
662.705	52.76
662.893	52.86
663.082	51.22
663.27	49.86
663.458	50.35
663.646	49.43
663.834	48.53
664.023	48.02
664.211	45.04
664.399	45.4
664.587	44.77
664.775	43.1
664.963	42.68
665.152	43.48
665.34	42.95
665.528	42.82
665.716	43.85
665.904	44.17
666.092	44.89
666.28	47.75
666.468	46.34
666.656	46.2
666.844	46.58
667.032	46.52
667.22	47.66
667.408	49.15
667.596	48.09
667.784	49.51
667.971	48.99
668.159	49.05
668.347	48.48
668.535	50.58
668.723	50.72
668.911	52.06
669.098	51.45
669.286	50.79
669.474	51.27
669.662	52.61
669.849	51.85
670.037	52.14
670.225	52.58
670.413	51.65
670.6	49.77
670.788	48.48
670.976	48.44
671.163	49.66
671.351	49.63
671.538	47.3
671.726	46.35
671.913	46.65
672.101	47.07
672.289	45.68
672.476	47.7
672.664	48.82
672.851	48.68
673.039	48.95
673.226	49.66
673.413	49.24
673.601	50.68
673.788	50.78
673.976	49.93
674.163	48.86
674.35	50.63
674.538	49.7
674.725	49.75
674.912	50.45
675.1	48.66
675.287	47.69
675.474	48.69
675.662	47.99
675.849	48.84
676.036	48.73
676.223	50.56
676.411	50.89
676.598	50.11
676.785	49.07
676.972	49.9
677.159	50.63
677.346	50.77
677.533	50.39
677.721	50.89
677.908	49.85
678.095	49.78
678.282	48.75
678.469	47.16
678.656	48.83
678.843	50.23
679.03	49.13
679.217	48.54
679.404	48.29
679.591	48.18
679.778	48.32
679.964	48.19
680.151	49.45
680.338	48.72
680.525	49.29
680.712	49.66
680.899	48.76
681.086	49.7
681.272	50.84
681.459	50.8
681.646	49.58
681.833	49.36
682.02	49.76
682.206	47.75
682.393	47.85
682.58	47.43
682.766	46.06
682.953	46.46
683.14	45.43
683.326	45.32
683.513	44.99
683.7	46.84
683.886	46.75
684.073	46.89
684.259	47.63
684.446	47.15
684.632	48.57
684.819	48.39
685.005	48.44
685.192	48.48
685.378	48.89
685.565	49.73
685.751	49.15
685.938	49.76
686.124	49.93
686.31	49.96
686.497	50.98
686.683	50.92
686.87	51.55
687.056	51.02
687.242	51.1
687.429	49.99
687.615	49.87
687.801	49.73
687.987	49.01
688.174	48.14
688.36	48
688.546	48.41
688.732	49.03
688.918	47.79
689.105	46.91
689.291	47.6
689.477	47.1
689.663	46.83
689.849	45.65
690.035	44.76
690.221	45.43
690.407	46.61
690.593	46.01
690.779	44.86
690.965	45.79
691.151	48.44
691.337	49.39
691.523	48.13
691.709	46.09
691.895	48.31
692.081	49.51
692.267	49.19
692.453	48.06
692.639	48.03
692.825	47.33
693.011	47
693.196	44.96
693.382	43.85
693.568	46.23
693.754	48.4
693.94	47.11
694.125	47.82
694.311	48.07
694.497	48.89
694.682	48.8
694.868	49.11
695.054	49.9
695.239	49.26
695.425	47.9
695.611	47.48
695.796	46.69
695.982	47.1
696.168	47.77
696.353	48.02
696.539	47.66
696.724	46.21
696.91	44.38
697.095	43.36
697.281	43.53
697.466	43.96
697.652	44.09
697.837	43.31
698.023	43.04
698.208	42.05
698.393	41.43
698.579	41.31
698.764	42.71
698.949	43.57
699.135	42.8
699.32	42.29
699.505	41.5
699.691	41.84
699.876	43.5
700.061	43.23
700.246	43.48
700.432	44.09
700.617	43.75
700.802	42.37
700.987	43.66
701.172	48.34
701.358	49.86
701.543	51.32
701.728	50.22
701.913	50.9
702.098	52.64
702.283	54.11
702.468	54
702.653	52.74
702.838	54.07
703.023	54.66
703.208	51.91
703.393	51.78
703.578	51.23
703.763	51.66
703.948	51.98
704.133	48.88
704.318	48.85
704.503	48.07
704.688	49.33
704.873	49.03
705.057	48.05
705.242	48.18
705.427	48.08
705.612	48.95
705.797	49.74
705.981	48.78
706.166	49.99
706.351	48.58
706.536	49.78
706.72	49.11
706.905	49.42
707.09	51.85
707.274	51.49
707.459	50.77
707.644	51.64
707.828	51.86
708.013	52.37
708.197	52.97
708.382	51.29
708.567	50.14
708.751	51.8
708.936	52.09
709.12	49.93
709.305	50.21
709.489	51.27
709.673	50.52
709.858	50.62
710.042	51.29
710.227	53.14
710.411	54.33
710.596	54.64
710.78	54.01
710.964	53.8
711.149	53.21
711.333	50.79
711.517	51.06
711.702	53.63
711.886	51.19
712.07	50.31
712.254	48.71
712.438	49.99
712.623	48.83
712.807	47.48
712.991	48.59
713.175	48.58
713.359	49.59
713.544	49.04
713.728	45.29
713.912	46.57
714.096	47.35
714.28	48.46
714.464	46.85
714.648	47.95
714.832	47.24
715.016	46.21
715.2	47.41
715.384	47.77
715.568	47.03
715.752	48.71
715.936	48.12
716.12	46.46
716.304	43.28
716.488	44.16
716.671	45.07
716.855	45.1
717.039	44.95
717.223	43.89
717.407	44.5
717.59	45.08
717.774	43.36
717.958	44.8
718.142	43.09
718.325	44.22
718.509	44.35
718.693	43.75
718.877	47.56
719.06	48.12
719.244	48.31
719.428	50.84
719.611	52.17
719.795	54.92
719.978	51.8
720.162	55.08
720.345	57.83
720.529	59.02
720.713	57.75
720.896	55.96
721.08	56.45
721.263	56.65
721.446	54.72
721.63	52
721.813	49.16
721.997	54.06
722.18	53.86
722.364	51.97
722.547	49.29
722.73	51.31
722.914	49.12
723.097	49.17
723.28	47.28
723.464	45.61
723.647	46.8
723.83	48.01
724.013	46.35
724.197	45.87
724.38	46.07
724.563	45.67
724.746	44.84
724.929	48.05
725.112	48.89
725.296	48.74
725.479	47.96
725.662	45.78
725.845	46.9
726.028	48.12
726.211	46.85
726.394	45.8
726.577	46.45
726.76	47.02
726.943	45.61
727.126	44.37
727.309	47.88
727.492	46.64
727.675	49.57
727.858	47.68
728.041	47.89
728.224	50.08
728.407	49.35
728.589	49.9
728.772	50.15
728.955	50.58
729.138	50.44
729.321	47.69
729.503	48.98
729.686	48.34
729.869	49.86
730.052	47.6
730.234	47.63
730.417	49.74
730.6	51.82
730.782	50.07
730.965	47.83
731.148	48.68
731.33	49.16
731.513	51.49
731.695	51.19
731.878	49.12
732.061	48.15
732.243	45.78
732.426	44.74
732.608	43.51
732.791	45.19
732.973	47.77
733.156	46.8
733.338	45.44
733.52	42.2
733.703	42.8
733.885	47.21
734.068	49.49
734.25	50.8
734.432	51.74
734.615	52.93
734.797	52.74
734.979	54.7
735.162	55.2
735.344	56.48
735.526	59.13
735.708	57.99
735.891	56.16
736.073	54.13
736.255	54.72
736.437	54.82
736.619	51.96
736.802	49.61
736.984	49.41
737.166	49.45
737.348	49.37
737.53	48.75
737.712	49.18
737.894	47.05
738.076	48.57
738.258	48.64
738.44	49.28
738.622	51.2
738.804	52.67
738.986	50.81
739.168	51.9
739.35	51.13
739.532	50.61
739.714	51.52
739.896	55.55
740.078	55.48
740.259	55.54
740.441	55.54
740.623	55.55
740.805	55.49
740.987	57.08
741.168	55.81
741.35	57.66
741.532	58.45
741.714	56.62
741.895	56.29
742.077	56.02
742.259	56.44
742.44	55.66
742.622	55.27
742.804	53.8
742.985	54.44
743.167	56.89
743.348	59.13
743.53	61.39
743.711	61.53
743.893	59.67
744.075	59.68
744.256	62.04
744.438	64.36
744.619	61.59
744.8	62.61
744.982	61.28
745.163	60.08
745.345	57.43
745.526	54.58
745.707	55.42
745.889	55.71
746.07	55.38
746.252	54.52
746.433	53.24
746.614	55.1
746.795	55.51
746.977	56.34
747.158	55.38
747.339	55.69
747.52	55.75
747.702	57.56
747.883	58.17
748.064	58.33
748.245	55.5
748.426	53.31
748.607	54.08
748.788	55.29
748.97	57.73
749.151	59.41
749.332	57.26
749.513	62.73
749.694	58.85
749.875	60.25
750.056	58.79
750.237	59.42
750.418	63.01
750.599	61.09
750.78	61.24
750.96	55.55
751.141	55.38
751.322	55.8
751.503	54.73
751.684	56.67
751.865	52.56
752.046	49.63
752.226	53.15
752.407	49.1
752.588	51.66
752.769	53.22
752.949	58.04
753.13	61.56
753.311	68.03
753.492	69.06
753.672	66.51
753.853	69.12
754.034	75.21
754.214	69.99
754.395	71.28
754.575	71.68
754.756	72.6
754.937	70.89
755.117	67.38
755.298	65.46
755.478	59.78
755.659	67.06
755.839	62.55
756.02	58.29
756.2	59.41
756.381	58.17
756.561	57.21
756.741	54.84
756.922	47.47
757.102	44.41
757.283	42.83
757.463	43.92
757.643	37.93
757.823	41.66
758.004	43.52
758.184	43.3
758.364	41.25
758.545	39.19
758.725	35.04
758.905	39.4
759.085	40.69
759.265	42.97
759.446	43.47
759.626	45.23
759.806	44.08
759.986	47.17
760.166	46.22
760.346	44.24
760.526	46.3
760.706	50.62
760.886	51.07
761.066	53.5
761.246	48.48
761.426	46.82
761.606	46.54
761.786	44.05
761.966	43.49
762.146	43.13
762.326	42.83
762.506	42.04
762.686	40.23
762.866	39.76
763.046	38.35
763.225	40.21
763.405	40.07
763.585	39.61
763.765	41.89
763.945	42.94
764.124	45.41
764.304	49.64
764.484	51.96
764.664	53.09
764.843	56.3
765.023	56.77
765.203	56.65
765.382	59.12
765.562	60.22
765.741	62.71
765.921	62.61
766.101	64.71
766.28	60.59
766.46	60.71
766.639	65.14
766.819	66.64
766.998	70.5
767.178	68.41
767.357	67.79
767.537	67.73
767.716	64.71
767.896	67.41
768.075	67.25
768.254	70.62
768.434	71.83
768.613	63.72
768.792	59.05
768.972	56.31
769.151	58.2
769.33	59.81
769.51	59.71
769.689	59.28
769.868	54.93
770.047	50.44
770.226	45.88
770.406	43.02
770.585	52.69
770.764	56.29
770.943	57.4
771.122	61.12
771.301	57.25
771.48	58.46
771.66	58.7
771.839	65.21
772.018	71.45
772.197	74.56
772.376	81.54
772.555	79.3
772.734	79.15
772.913	78.28
773.092	78.29
773.271	87.73
773.449	92.15
773.628	93.44
773.807	90.41
773.986	84.3
774.165	82.62
774.344	76.73
774.523	69.59
774.701	68.24
774.88	67.7
775.059	66.37
775.238	62.42
775.417	57.43
775.595	55.44
775.774	45.9
775.953	47.69
776.131	48.73
776.31	45.91
776.489	49.4
776.667	53.19
776.846	50.62
777.025	51.19
777.203	54.82
777.382	57.74
777.56	54.44
777.739	60.75
777.917	65.72
778.096	66.91
778.274	71.87
778.453	74.12
778.631	77.77
778.81	84.4
778.988	84.57
779.166	87.09
779.345	87
779.523	89.63
779.702	92.52
779.88	92.25
780.058	90.33
780.237	90.42
780.415	91.02
780.593	90.38
780.771	92.9
780.95	90.57
781.128	82.68
781.306	83.22
781.484	79.73
781.662	80.36
781.841	79.38
782.019	77.5
782.197	84
782.375	88.7
782.553	83.07
782.731	76.11
782.909	84.12
783.087	77.7
783.265	79.16
783.443	81.42
783.621	79.48
783.799	78.95
783.977	82.47
784.155	71.47
784.333	68.34
784.511	73.53
784.689	74.96
784.867	64.22
785.045	74.91
785.223	67.71
785.4	71.91
785.578	71.34
785.756	65.39
785.934	61.82
786.112	58.92
786.289	52.67
786.467	46.62
786.645	45.51
786.823	47.24
787	48.07
787.178	52.66
787.356	51.55
787.533	52.43
787.711	54.28
787.889	58.91
788.066	60.49
788.244	62.49
788.421	65.31
788.599	67.4
788.776	62.85
788.954	58.9
789.131	52.1
789.309	52.65
789.486	51.47
789.664	52.63
789.841	42.25
790.019	44.43
790.196	39.23
790.373	37.55
790.551	44.74
790.728	50.66
790.906	55.44
791.083	57.46
791.26	47.16
791.437	50.71
791.615	46.52
791.792	56.52
791.969	53.62
792.146	65.76
792.324	64.89
792.501	64.18
792.678	64.65
792.855	64.42
793.032	70.89
793.209	78.41
793.387	71.54
793.564	77.68
793.741	77.44
793.918	77.86
794.095	73.95
794.272	79.57
794.449	74.86
794.626	65.35
794.803	60.62
794.98	56.26
795.157	57.04
795.334	59.35
795.511	57.3
795.688	58.01
795.864	51.42
796.041	51.28
796.218	47.69
796.395	47.43
796.572	55.16
796.749	55.6
796.925	55
797.102	55.54
797.279	55.67
797.456	52.17
797.632	56.23
797.809	66.21
797.986	65.04
798.162	62.78
798.339	62.87
798.516	59.18
798.692	54.7
798.869	49.58
799.046	47.07
799.222	40.98
799.399	37.75
799.575	34.7
799.752	37.62
799.928	40.36
800.105	40.2
800.281	37.78
800.458	48.85
800.634	54.29
800.811	57.35
800.987	58.25
801.163	65.71
801.34	71.03
801.516	70.53
801.692	70.23
801.869	72.09
802.045	72.14
802.221	73.11
802.398	62.95
802.574	70.65
802.75	72.95
802.926	76.41
803.103	72.96
803.279	72.53
803.455	66.34
803.631	62.17
803.807	48.23
803.983	60.43
804.16	59.64
804.336	55.8
804.512	39.33
804.688	34.61
804.864	33.94
805.04	34.98
805.216	39.5
805.392	46.49
805.568	51.46
805.744	59.28
805.92	43.74
806.096	44.29
806.272	47.87
806.448	56.34
806.623	58.79
806.799	53.5
806.975	44.54
807.151	41.69
807.327	39.81
807.503	38.71
807.678	44.3
807.854	59.05
808.03	60.68
808.206	63.99
808.381	51.17
808.557	53.93
808.733	74.1
808.908	94.63
809.084	87.99
809.26	88.01
809.435	76.06
809.611	77.24
809.787	61.63
809.962	58.56
810.138	53.6
810.313	58.12
810.489	50.54
810.664	38.53
810.84	31.59
811.015	28.35
811.191	21.75
811.366	22.66
811.542	20.73
811.717	28.26
811.892	32.96
812.068	31.3
812.243	32.39
812.419	27.87
812.594	32.93
812.769	34.03
812.944	31.16
813.12	34.03
813.295	29.92
813.47	24.67
813.645	8.18
813.821	-1.88
813.996	23.33
814.171	24.7
814.346	29.62
814.521	30.74
814.697	25.94
814.872	32.06
815.047	31.7
815.222	31.55
815.397	41.86
815.572	44.2
815.747	40.39
815.922	33.83
816.097	32.69
816.272	33.12
816.447	37.32
816.622	40.39
816.797	44.65
816.972	44.64
817.147	43.45
817.322	34.75
817.496	41.42
817.671	40.96
817.846	31.16
818.021	27.24
818.196	29.72
818.371	23.08
818.545	21.44
818.72	15.49
818.895	10.38
819.069	14.9
819.244	21.39
819.419	17.11
819.594	25.16
819.768	30.1
819.943	33.93
820.117	32.61
820.292	35.97
820.467	38.89
820.641	38.92
820.816	39.82
820.99	39.13
821.165	39.08
821.339	40.1
821.514	38.56
821.688	39.75
821.863	38.68
822.037	39.79
822.212	37.74
822.386	34.11
822.56	34.29
822.735	35.56
822.909	34.78
823.084	34.13
823.258	34.88
823.432	32.21
823.606	30.34
823.781	30.6
823.955	30.31
824.129	31.32
824.303	38.77
824.478	36.91
824.652	34.19
824.826	35.76
825	38.68
825.174	36.3
825.348	41.09
825.523	39.67
825.697	40.77
825.871	39.95
826.045	39.84
826.219	38.42
826.393	40.23
826.567	39.89
826.741	38.93
826.915	37.3
827.089	40.78
827.263	41.92
827.437	46.05
827.611	46.03
827.784	45.28
827.958	49
828.132	49.9
828.306	50
828.48	45.71
828.654	49.16
828.827	51.41
829.001	38.34
829.175	30.93
829.349	25.65
829.522	29.54
829.696	32.41
829.87	37.75
830.044	39.11
830.217	36.45
830.391	45.5
830.565	36.3
830.738	36.55
830.912	47.93
831.085	46.84
831.259	57.56
831.432	57.71
831.606	54.97
831.779	49.45
831.953	46.77
832.126	39.56
832.3	42.02
832.473	48.45
832.647	44.8
832.82	40.73
832.994	43.5
833.167	43.7
833.34	48.72
833.514	49.92
833.687	49.15
833.86	47.98
834.034	54.95
834.207	56.47
834.38	56.43
834.553	57.9
834.727	66.48
834.9	60.17
835.073	57.05
835.246	48.6
835.419	51.09
835.593	56.67
835.766	61.12
835.939	63.28
836.112	65.26
836.285	60.48
836.458	57.03
836.631	44.71
836.804	53.2
836.977	54.98
837.15	41.56
837.323	29.62
837.496	26.81
837.669	23.49
837.842	23.09
838.015	22.54
838.188	37.35
838.361	42.53
838.533	46.28
838.706	43.25
838.879	34.01
839.052	40.87
839.225	48.14
839.398	42.3
839.57	45.54
839.743	33.66
839.916	38.17
840.088	22.8
840.261	19.74
840.434	19.26
840.607	33.9
840.779	49.48
840.952	40
841.124	46
841.297	48.26
841.47	54.61
841.642	62.28
841.815	49.03
841.987	61.26
842.16	64.67
842.332	81.07
842.505	66.04
842.677	57.53
842.85	55.41
843.022	42.28
843.194	55.66
843.367	46.55
843.539	50.77
843.712	45.75
843.884	36.87
844.056	6.89
844.229	9.99
844.401	16.1
844.573	24.46
844.745	24.96
844.918	24.64
845.09	9.18
845.262	22.87
845.434	5.39
845.606	32.38
845.779	64.66
845.951	88.59
846.123	74.72
846.295	70.53
846.467	77.64
846.639	78.75
846.811	100.7
846.983	100.39
847.155	100.88
847.327	120.75
847.499	144.94
847.671	99.48
847.843	124.65
848.015	-270.97
848.187	135.56
848.359	-257.89
848.531	316.67
848.703	-10733.33
848.875	424.47
849.047	-264.89
849.218	-184.21
849.39	-227.24
849.562	-155.59
849.734	-126.18
849.905	-154.31
850.077	-157.73
850.249	-125.56
850.421	-564.71
850.592	-28.41
850.764	-14.18
850.936	-516
851.107	1033.33
851.279	213.39
851.451	114.98
851.622	104.93
851.794	100.62
851.965	66.95
852.137	60.4
852.308	64.46
852.48	52.1
852.651	42.97
852.823	17.62
852.994	14.37
853.166	35.32
853.337	53.47
853.509	56.26
853.68	60.21
853.851	68.33
854.023	112.29
854.194	114.45
854.365	115.38
854.537	95.62
854.708	107.43
854.879	145.63
855.05	123.69
855.222	119.64
855.393	215.77
855.564	134.98
855.735	168.06
855.906	161.74
856.078	97.31
856.249	81.73
856.42	43.21
856.591	27.17
856.762	8.68
856.933	-2.44
857.104	-17.03
857.275	-60.97
857.446	-89.42
857.617	-56.52
857.788	-45.16
857.959	-45.48
858.13	-21.31
858.301	17.34
858.472	31.06
858.643	36.36
858.814	49.3
858.985	71.73
859.155	79.44
859.326	90.55
859.497	200.84
859.668	106.59
859.839	126.25
860.009	150.31
860.18	106.3
860.351	95.1
860.522	129.79
860.692	27.73
860.863	24.27
861.034	31.06
861.204	4.83
861.375	13.68
861.546	-14.99
861.716	-7.79
861.887	-16.51
862.057	1.96
862.228	21.54
862.398	-9.9
862.569	28.68
862.739	32.43
862.91	23.52
863.08	36.88
863.251	34.23
863.421	-10.43
863.592	-11.03
863.762	-57.56
863.932	-21.98
864.103	226.74
864.273	475
864.443	149.17
864.614	112.46
864.784	101.69
864.954	556.67
865.125	-2628.57
865.295	526.87
865.465	503.51
865.635	1012.5
865.805	-22.78
865.976	733.33
866.146	195.45
866.316	400
866.486	111.9
866.656	-34.21
866.826	87.83
866.996	223.08
867.166	130.07
867.336	180.52
867.506	-67.14
867.676	-13.16
867.846	-13.31
868.016	9.38
868.186	9.21
868.356	18.42
868.526	31.21
868.696	39.6
868.866	47.81
869.036	34.42
869.206	30.14
869.376	49.85
869.545	89.47
869.715	102.63
869.885	49.76
870.055	-26.29
870.224	-65.12
870.394	490.48
870.564	-123.88
870.734	-123
870.903	-6.46
871.073	24.7
871.243	4.29
871.412	21.7
871.582	13.56
871.751	7.36
871.921	23.86
872.091	11.03
872.26	-4.07
872.43	0.68
872.599	8.51
872.769	11.43
872.938	-6.16
873.108	9.94
873.277	-0.94
873.446	12.57
873.616	20.27
873.785	22.12
873.955	22.05
874.124	49.3
874.293	42.37
874.463	27.96
874.632	41.9
874.801	64.2
874.971	58.09
875.14	77.58
875.309	75.59
875.478	100
875.647	116.93
875.817	57.81
875.986	63.84
876.155	51.78
876.324	54.65
876.493	45.19
876.662	38.4
876.831	20.14
877	6.87
877.17	13.41
877.339	-1.04
877.508	-6.19
877.677	8.93
877.846	9.29
878.015	-21.41
878.184	-9.63
878.352	-22.24
878.521	-59.17
878.69	-16.7
878.859	-9.9
879.028	-5.45
879.197	9.78
879.366	29.28
879.534	28.67
879.703	15.13
879.872	29.15
880.041	33.59
880.21	39.06
880.378	42.22
880.547	33.71
880.716	36.46
880.884	37.24
881.053	35.31
881.222	31.87
881.39	26.48
881.559	23.61
881.727	26.93
881.896	21.51
882.065	18.98
882.233	17.02
882.402	26.43
882.57	28.05
882.739	26.4
882.907	34.23
883.076	40.27
883.244	50.71
883.412	55.97
883.581	44.96
883.749	53.23
883.918	54.46
884.086	54.19
884.254	48.34
884.423	38.7
884.591	36.27
884.759	39.4
884.927	15.1
885.096	26.23
885.264	22.4
885.432	22.6
885.6	6.36
885.769	5.17
885.937	1.36
886.105	-35.9
886.273	-72.56
886.441	-68.63
886.609	-461.98
886.777	-286.08
886.945	360.23
887.113	428.07
887.281	28150
887.449	350
887.617	0
887.785	228.63
887.953	133.62
888.121	96.48
888.289	47.53
888.457	-223.29
888.625	-9000
888.793	855
888.961	2112.5
889.129	155.1
889.296	61.49
889.464	58.33
889.632	55.56
889.8	32.03
889.967	-3.33
890.135	7.27
