Data from 2937858_Reflection_4.txt Node
Date: Wed Jul 15 15:33:54 EDT 2015
User: robert
Spectrometer: USB4E03001
Autoset integration time: false
Trigger mode: 4
Integration Time (sec): 1.000000E-1
Scans to average: 10
Electric dark correction enabled: true
Nonlinearity correction enabled: false
Boxcar width: 5
Stray light correction enabled: false
XAxis mode: Wavelengths
Stop averaging: false
Number of Pixels in Spectrum: 3648
>>>>>Begin Spectral Data<<<<<
177.566	-109.37
177.785	-79.97
178.005	-322.43
178.225	-191
178.445	-380.44
178.665	-822.63
178.885	275.56
179.105	699.13
179.324	251.42
179.544	-100.91
179.764	-65.39
179.984	24.32
180.204	20.01
180.423	-51.74
180.643	-12.91
180.863	-21.62
181.083	-17.73
181.302	24.72
181.522	57.23
181.742	29.9
181.961	7.59
182.181	-38.45
182.401	-179.63
182.621	-80.4
182.84	-45.22
183.06	-1.74
183.279	26.07
183.499	44.13
183.719	57.09
183.938	141.18
184.158	162.78
184.377	138.13
184.597	162.96
184.816	138.58
185.036	214.72
185.256	184.98
185.475	222.54
185.695	164.96
185.914	365.39
186.134	141.84
186.353	14.15
186.572	-64.64
186.792	4.22
187.011	-28.22
187.231	12.66
187.45	37.32
187.67	26.07
187.889	9.67
188.108	31.47
188.328	36.31
188.547	47.45
188.766	39.75
188.986	44.85
189.205	21.25
189.424	24.56
189.644	-72.41
189.863	-316.24
190.082	-827.48
190.302	1689.77
190.521	-136.28
190.74	-88.17
190.959	-145
191.178	-104.34
191.398	-109.66
191.617	-100.51
191.836	-68.97
192.055	-22.02
192.274	47.17
192.494	66.57
192.713	55.96
192.932	24.7
193.151	-13.84
193.37	-26.58
193.589	-312.73
193.808	188.3
194.027	236.61
194.246	137.79
194.465	114.71
194.685	105.71
194.904	49.63
195.123	68.35
195.342	93.38
195.561	137.63
195.78	118.67
195.999	60.79
196.218	63.09
196.436	51.7
196.655	56.21
196.874	55.68
197.093	52.74
197.312	68.82
197.531	72.07
197.75	70.67
197.969	56.4
198.188	25.09
198.407	51.17
198.625	70.63
198.844	68.03
199.063	-40.44
199.282	-35.97
199.501	-41.4
199.719	-166.69
199.938	-40.59
200.157	-0.66
200.376	21.39
200.594	48.47
200.813	47.47
201.032	34.41
201.251	28.88
201.469	54.68
201.688	57.28
201.907	70.57
202.125	50.65
202.344	37.47
202.563	82.83
202.781	45.41
203	34.58
203.218	-30.71
203.437	10430
203.656	1043.57
203.874	-336.54
204.093	-357.23
204.311	-81.42
204.53	-212.4
204.748	-36.07
204.967	-76.75
205.185	-55.04
205.404	-95.12
205.622	-45.57
205.841	-31.15
206.059	-15.88
206.278	0.24
206.496	32.19
206.715	50.31
206.933	52.5
207.151	65.75
207.37	62.52
207.588	63.48
207.806	53.88
208.025	49
208.243	18.88
208.461	41.42
208.68	67.3
208.898	62.06
209.116	57.42
209.335	63.15
209.553	64.72
209.771	94.7
209.989	93.14
210.208	112.2
210.426	91.42
210.644	175.27
210.862	199.66
211.081	210.47
211.299	154.69
211.517	115.05
211.735	108.21
211.953	100.14
212.171	77.42
212.39	108.44
212.608	84.66
212.826	98.17
213.044	69.13
213.262	34.84
213.48	27.83
213.698	26.13
213.916	19.83
214.134	2.53
214.352	3.6
214.57	-8.07
214.788	-10.21
215.006	21.21
215.224	24.23
215.442	23.52
215.66	31.21
215.878	45.67
216.096	32.94
216.314	26.68
216.532	22.92
216.75	-2.72
216.968	-6.88
217.185	-10.15
217.403	-5.81
217.621	6.42
217.839	-27.93
218.057	-47.7
218.275	-30.9
218.492	-5.74
218.71	-21.1
218.928	-77.6
219.146	-25.14
219.363	30.99
219.581	37.9
219.799	26.24
220.017	8.43
220.234	21.38
220.452	25.14
220.67	25.91
220.887	33.3
221.105	22.35
221.323	29.4
221.54	32.87
221.758	8.26
221.976	-12.39
222.193	-13.33
222.411	-8.06
222.629	0.51
222.846	8.31
223.064	-2.78
223.281	-7.92
223.499	0.26
223.716	3.96
223.934	-1.63
224.151	5.99
224.369	17.04
224.586	21.32
224.804	22.77
225.021	18.66
225.239	0.51
225.456	13.84
225.674	17.1
225.891	24.81
226.108	27.85
226.326	32.59
226.543	36.56
226.76	29.92
226.978	22.38
227.195	25.49
227.413	21.52
227.63	21.42
227.847	17.56
228.064	17.05
228.282	7.72
228.499	5.08
228.716	2.91
228.934	2.22
229.151	3.23
229.368	2.17
229.585	1.88
229.802	2.27
230.02	3.03
230.237	0.47
230.454	-2.45
230.671	-2.12
230.888	-1.73
231.105	-1.54
231.323	-7.6
231.54	-9.95
231.757	-10.58
231.974	-13.86
232.191	-14.83
232.408	-14.08
232.625	-10.18
232.842	-0.49
233.059	7.36
233.276	8.59
233.493	6.68
233.71	13.42
233.927	9.38
234.144	10.65
234.361	8.98
234.578	7.82
234.795	5.66
235.012	6.27
235.229	-2.76
235.446	-8.83
235.663	-9.03
235.879	-3.3
236.096	-3.59
236.313	-0.81
236.53	-4.8
236.747	-2.56
236.964	-1.65
237.181	-3.18
237.397	-4.61
237.614	-0.18
237.831	2.25
238.048	-0.13
238.264	-8.3
238.481	-7.39
238.698	-1.13
238.915	5.19
239.131	2.25
239.348	2.38
239.565	3.6
239.781	5.26
239.998	4.33
240.215	4.25
240.431	4.85
240.648	6.65
240.865	7.71
241.081	3.43
241.298	2.78
241.514	4.55
241.731	7.03
241.947	7.09
242.164	7.39
242.38	6.69
242.597	7.71
242.814	6.78
243.03	7.19
243.246	7.14
243.463	8.89
243.679	7.49
243.896	7.42
244.112	5.15
244.329	5.72
244.545	5.91
244.762	6.08
244.978	4.35
245.194	6.19
245.411	7.32
245.627	6.47
245.843	4.84
246.06	7.11
246.276	7.76
246.492	8.68
246.709	8.88
246.925	8.22
247.141	9.23
247.357	9.24
247.574	10.14
247.79	9.3
248.006	9.53
248.222	9.67
248.439	8.56
248.655	8.59
248.871	8.25
249.087	7.4
249.303	8.06
249.519	7.32
249.736	7.48
249.952	5.14
250.168	6.18
250.384	7.11
250.6	6.95
250.816	7.78
251.032	8.07
251.248	7.17
251.464	8.3
251.68	4.83
251.896	3.54
252.112	2.64
252.328	3.1
252.544	4.09
252.76	3.48
252.976	3.78
253.192	4.73
253.408	2.17
253.624	-0.06
253.84	1.96
254.056	3.8
254.272	2.72
254.487	3.19
254.703	0.89
254.919	-2.54
255.135	-1.48
255.351	-1.99
255.567	-2.57
255.782	0.14
255.998	3.21
256.214	0.66
256.43	1.98
256.646	5.09
256.861	6.05
257.077	7.13
257.293	7.64
257.508	4.03
257.724	4.62
257.94	4.49
258.155	3.23
258.371	4.3
258.587	3.66
258.802	3.93
259.018	2.7
259.234	2.5
259.449	3.72
259.665	3.58
259.88	4.09
260.096	4.4
260.312	4.5
260.527	4.83
260.743	4.3
260.958	4.08
261.174	3.74
261.389	4.43
261.605	4.42
261.82	2.84
262.036	3.15
262.251	2.25
262.466	1.75
262.682	1.29
262.897	1.38
263.113	2.17
263.328	2.01
263.543	3.29
263.759	2.04
263.974	1.58
264.189	1.81
264.405	-0.07
264.62	2.59
264.835	1.08
265.051	-0.45
265.266	-1.07
265.481	-0.34
265.696	0.74
265.912	-1.23
266.127	0.08
266.342	1.03
266.557	0.75
266.773	0.97
266.988	-0.52
267.203	0.99
267.418	2.69
267.633	2.26
267.848	1.86
268.064	-0
268.279	-0.19
268.494	-0.13
268.709	0.86
268.924	2.21
269.139	3.31
269.354	3.62
269.569	2.53
269.784	1.86
269.999	2.43
270.214	2.9
270.429	4.13
270.644	4.49
270.859	4.52
271.074	4.07
271.289	3.86
271.504	2.78
271.719	3.11
271.934	2.66
272.149	3.15
272.363	3.19
272.578	2.14
272.793	1.59
273.008	2.74
273.223	2.2
273.438	2.22
273.653	3.76
273.867	4.81
274.082	4.42
274.297	4.03
274.512	3.22
274.726	3.22
274.941	2.7
275.156	5.66
275.371	4.97
275.585	5.39
275.8	4.62
276.015	2.61
276.229	2.49
276.444	2.39
276.659	4.08
276.873	4.93
277.088	3.57
277.302	3.48
277.517	-0.5
277.732	-1.16
277.946	-1.41
278.161	-0.09
278.375	1.73
278.59	2.4
278.804	2.28
279.019	1.85
279.233	2.13
279.448	2.86
279.662	3.22
279.877	4.05
280.091	5.47
280.306	6.41
280.52	3.87
280.735	2.48
280.949	1.38
281.163	1.53
281.378	1.03
281.592	0.47
281.806	0.38
282.021	1.22
282.235	2.05
282.449	1.32
282.664	-0.06
282.878	1.77
283.092	1.48
283.307	1.49
283.521	2.08
283.735	2.43
283.949	2.49
284.164	3.43
284.378	3
284.592	1.65
284.806	0.32
285.02	2.46
285.234	2.24
285.449	2.62
285.663	3.06
285.877	3.47
286.091	3.52
286.305	3.68
286.519	2.79
286.733	2.88
286.947	2.86
287.161	3.92
287.375	2.55
287.589	1.65
287.803	1.73
288.017	1.52
288.231	1.29
288.445	1.66
288.659	2.26
288.873	3.55
289.087	3.47
289.301	5.56
289.515	5.03
289.729	5.42
289.943	4.56
290.157	5.5
290.371	5.84
290.584	5.73
290.798	5.61
291.012	3.78
291.226	2.93
291.44	3.11
291.654	2.69
291.867	3.41
292.081	2.83
292.295	2.7
292.509	1.63
292.722	0.24
292.936	0.1
293.15	-0.77
293.364	1.14
293.577	0.62
293.791	0.64
294.005	0.39
294.218	-0.52
294.432	0.13
294.645	1.99
294.859	1.68
295.073	3.64
295.286	4.23
295.5	5.39
295.713	5.55
295.927	7.02
296.14	7.71
296.354	7.95
296.568	8.67
296.781	8.78
296.994	8.9
297.208	8.76
297.421	8.75
297.635	8.26
297.848	8.36
298.062	7.79
298.275	7.15
298.489	6.6
298.702	6.97
298.915	6.3
299.129	6.98
299.342	7.86
299.555	8.48
299.769	7.61
299.982	8.51
300.195	9.25
300.409	10.54
300.622	10.74
300.835	12.24
301.048	12.95
301.262	13.72
301.475	13.43
301.688	11.91
301.901	11.67
302.115	12.24
302.328	12.27
302.541	11.7
302.754	10.84
302.967	11.15
303.18	9.76
303.393	7.81
303.607	6.68
303.82	6.35
304.033	7.32
304.246	5.17
304.459	4.62
304.672	4.8
304.885	5.72
305.098	5.48
305.311	6.12
305.524	6.92
305.737	7.59
305.95	8.33
306.163	7.89
306.376	8.84
306.589	11.38
306.802	12.52
307.015	12.64
307.228	10.46
307.44	10.38
307.653	8.21
307.866	9.35
308.079	9.63
308.292	9.19
308.505	8.63
308.718	8.17
308.93	9.45
309.143	9.55
309.356	9.07
309.569	10.18
309.781	9.57
309.994	11.82
310.207	11.49
310.42	12.67
310.632	13.68
310.845	15.19
311.058	14.97
311.27	13.56
311.483	13.35
311.696	13.28
311.908	13.23
312.121	13.45
312.333	13.27
312.546	12
312.759	10.01
312.971	9.02
313.184	6.34
313.396	5.18
313.609	6.76
313.821	6.14
314.034	7.01
314.246	7.03
314.459	7.55
314.671	7.42
314.884	8.12
315.096	9.08
315.309	9.7
315.521	11.75
315.733	12.41
315.946	11.28
316.158	13
316.371	12.5
316.583	13.94
316.795	12.55
317.008	12.88
317.22	12.53
317.432	12.1
317.644	13.03
317.857	13.98
318.069	14.25
318.281	13.66
318.494	12.23
318.706	13.64
318.918	11.86
319.13	12.63
319.342	10.91
319.555	11.95
319.767	11.98
319.979	12.11
320.191	10.78
320.403	10.04
320.615	11.18
320.827	11.07
321.039	9.51
321.252	10.24
321.464	11.01
321.676	11.46
321.888	10.58
322.1	11.68
322.312	10.66
322.524	12.24
322.736	12.87
322.948	13.6
323.16	12.88
323.372	12.95
323.584	13.27
323.796	13.58
324.007	13.61
324.219	14.52
324.431	14.82
324.643	14.61
324.855	14.66
325.067	14.98
325.279	14.15
325.491	15.54
325.702	16.06
325.914	16.13
326.126	17.05
326.338	18.12
326.55	17.29
326.761	16.82
326.973	17.57
327.185	16.61
327.396	16.59
327.608	17.94
327.82	18.39
328.032	18.21
328.243	18.66
328.455	18.02
328.666	18.43
328.878	19.31
329.09	20.07
329.301	20
329.513	21.13
329.725	23.62
329.936	23.97
330.148	24.59
330.359	25.27
330.571	25.37
330.782	26.31
330.994	27.04
331.205	28.04
331.417	28.17
331.628	29.18
331.84	29.65
332.051	28.54
332.262	28.27
332.474	28.93
332.685	29.9
332.897	30.49
333.108	31.94
333.319	31.21
333.531	32.13
333.742	33.29
333.953	34.15
334.165	34.66
334.376	34.31
334.587	35.69
334.799	35.53
335.01	36.96
335.221	37.38
335.432	37.38
335.644	38.72
335.855	39.09
336.066	39.49
336.277	39.49
336.488	39.84
336.7	40.89
336.911	40.2
337.122	41.62
337.333	40.98
337.544	41.76
337.755	42.2
337.966	42.54
338.177	42.91
338.388	43.23
338.599	43.89
338.811	44.46
339.022	45.57
339.233	46.78
339.444	46.06
339.655	47.14
339.866	47.29
340.076	46.1
340.287	45.33
340.498	44.88
340.709	45.46
340.92	44.92
341.131	44.79
341.342	45.35
341.553	44.2
341.764	44.31
341.975	42.9
342.185	42.89
342.396	43.35
342.607	44.03
342.818	44.31
343.029	44.82
343.239	45.08
343.45	45.1
343.661	44.37
343.872	46.04
344.082	45.63
344.293	45.6
344.504	46.29
344.714	47.28
344.925	48.02
345.136	48.56
345.346	47.22
345.557	47.3
345.768	48.11
345.978	48.09
346.189	47.61
346.399	48.81
346.61	49.55
346.821	49.27
347.031	48.77
347.242	48.41
347.452	48.25
347.663	49.45
347.873	49.86
348.084	49.04
348.294	49.55
348.504	49.28
348.715	48.08
348.925	48.03
349.136	48.28
349.346	47.64
349.557	47.5
349.767	47.39
349.977	47.93
350.188	47.88
350.398	48.17
350.608	48.51
350.819	49.17
351.029	50.13
351.239	49.91
351.449	49.67
351.66	50.81
351.87	51.13
352.08	50.81
352.29	49.9
352.501	49.8
352.711	49.62
352.921	47.69
353.131	46.88
353.341	46.32
353.552	46.89
353.762	46.89
353.972	46.79
354.182	46.43
354.392	47.07
354.602	46.28
354.812	45.49
355.022	46.49
355.232	46.96
355.442	46.65
355.652	46.71
355.862	46.4
356.072	45.68
356.282	45.76
356.492	45.96
356.702	45.15
356.912	46.34
357.122	47.76
357.332	47.27
357.542	47.12
357.752	47.71
357.962	48.14
358.171	48.28
358.381	48.67
358.591	49.24
358.801	49.19
359.011	49.94
359.221	49.26
359.43	49.44
359.64	48.51
359.85	48.66
360.06	48.5
360.269	48.69
360.479	48.33
360.689	48.1
360.899	47.53
361.108	47.06
361.318	47.1
361.528	47.08
361.737	46.32
361.947	46.93
362.156	47.61
362.366	47.51
362.576	47.32
362.785	47.17
362.995	47.2
363.204	47.37
363.414	48.31
363.623	47.69
363.833	47.31
364.042	47.51
364.252	46.99
364.461	46.44
364.671	46.05
364.88	45.55
365.09	45.91
365.299	46.18
365.509	45.71
365.718	44.97
365.927	44.57
366.137	44.58
366.346	44.14
366.555	44.94
366.765	44.95
366.974	45.37
367.183	45.86
367.393	46.04
367.602	45.38
367.811	45.47
368.021	45.93
368.23	46.78
368.439	46.82
368.648	46.5
368.857	45.79
369.067	45.52
369.276	45.75
369.485	44.8
369.694	44.17
369.903	43.91
370.112	43.45
370.321	42.69
370.531	42.22
370.74	42.23
370.949	42.95
371.158	43.19
371.367	43.15
371.576	42.7
371.785	42.96
371.994	42.93
372.203	43.29
372.412	43.32
372.621	43.37
372.83	43.48
373.039	43.17
373.248	42.05
373.457	41.94
373.666	42.43
373.874	42.19
374.083	42.22
374.292	42.94
374.501	43.07
374.71	42.98
374.919	42.68
375.128	42.51
375.336	43.23
375.545	43.39
375.754	42.58
375.963	42.11
376.171	42.19
376.38	42.61
376.589	42.11
376.798	41.73
377.006	41.34
377.215	41.01
377.424	41.28
377.632	40.57
377.841	40.85
378.05	41.39
378.258	41.31
378.467	41.72
378.675	41.5
378.884	41.31
379.093	41.42
379.301	41.9
379.51	42.11
379.718	41.98
379.927	42.34
380.135	42.68
380.344	42.7
380.552	42.41
380.761	41.62
380.969	41.29
381.177	40.53
381.386	40.26
381.594	39.69
381.803	40.05
382.011	39.89
382.219	39.73
382.428	38.92
382.636	38.34
382.845	37.97
383.053	38.01
383.261	37.84
383.469	38.74
383.678	38.56
383.886	38.28
384.094	38.04
384.302	37.66
384.511	37.4
384.719	37.5
384.927	37.59
385.135	38.36
385.343	37.61
385.552	37.03
385.76	36.52
385.968	36.54
386.176	36.97
386.384	36.52
386.592	37
386.8	36.86
387.008	36.87
387.216	36.43
387.424	35.71
387.633	36.33
387.841	36.76
388.049	36.53
388.257	36.5
388.465	35.88
388.672	36.29
388.88	35.82
389.088	35.4
389.296	35.48
389.504	35.67
389.712	36.06
389.92	36.03
390.128	35.71
390.336	35.6
390.544	35.56
390.751	35.41
390.959	34.88
391.167	34.82
391.375	35.18
391.583	34.98
391.79	35.19
391.998	34.82
392.206	34.83
392.414	35.04
392.621	35.2
392.829	35.03
393.037	35.27
393.244	35.63
393.452	35.46
393.66	35.66
393.867	35.59
394.075	35.32
394.283	35.28
394.49	34.98
394.698	34.94
394.905	34.78
395.113	34.74
395.32	34.97
395.528	34.88
395.735	35.05
395.943	34.8
396.15	34.83
396.358	34.91
396.565	35.16
396.773	35.29
396.98	35.42
397.188	35.6
397.395	35.92
397.602	35.52
397.81	35.36
398.017	35.38
398.225	35.2
398.432	35.16
398.639	35.05
398.847	34.79
399.054	35.07
399.261	35.18
399.468	35.26
399.676	35.27
399.883	35.33
400.09	35.32
400.297	35.39
400.505	35.32
400.712	35.56
400.919	35.99
401.126	36.07
401.333	36.02
401.54	35.96
401.748	35.92
401.955	35.6
402.162	36.09
402.369	35.86
402.576	35.75
402.783	35.88
402.99	35.92
403.197	35.73
403.404	35.81
403.611	35.74
403.818	35.54
404.025	35.27
404.232	35.47
404.439	34.95
404.646	35.11
404.853	35.02
405.06	35.34
405.267	35.24
405.474	35.32
405.681	35.31
405.887	35.27
406.094	35.47
406.301	35.66
406.508	35.61
406.715	35.88
406.922	36.3
407.128	36.36
407.335	35.99
407.542	36
407.749	35.85
407.955	35.9
408.162	35.78
408.369	35.49
408.575	35.46
408.782	35.33
408.989	35.18
409.195	35.05
409.402	35.22
409.609	35.03
409.815	34.94
410.022	34.96
410.228	35.1
410.435	35.15
410.642	35.26
410.848	35.33
411.055	35.45
411.261	35.64
411.468	35.34
411.674	35.24
411.881	35.44
412.087	35.76
412.294	35.79
412.5	35.66
412.706	35.53
412.913	35.31
413.119	35.23
413.326	35.36
413.532	35.22
413.738	35.18
413.945	35.23
414.151	35.37
414.357	34.95
414.564	34.89
414.77	34.84
414.976	34.75
415.182	34.83
415.389	34.72
415.595	34.65
415.801	34.45
416.007	34.77
416.214	34.57
416.42	34.67
416.626	34.57
416.832	34.39
417.038	34.48
417.244	34.31
417.45	34.3
417.657	34.25
417.863	33.99
418.069	34.08
418.275	33.82
418.481	33.9
418.687	33.81
418.893	33.96
419.099	34.03
419.305	33.98
419.511	34.12
419.717	34.13
419.923	34.2
420.129	34.24
420.335	34.19
420.541	34.15
420.746	33.93
420.952	33.64
421.158	33.51
421.364	33.43
421.57	33.27
421.776	33.35
421.982	33.31
422.187	33.14
422.393	33.07
422.599	33.06
422.805	32.97
423.01	33.04
423.216	33.27
423.422	33.2
423.628	33.21
423.833	33.05
424.039	33.05
424.245	33.05
424.45	33.11
424.656	33.08
424.862	33.11
425.067	33.27
425.273	33.27
425.478	33.25
425.684	33.45
425.889	33.43
426.095	33.58
426.301	33.61
426.506	33.62
426.712	33.65
426.917	33.83
427.123	33.79
427.328	33.49
427.533	33.44
427.739	33.46
427.944	33.25
428.15	33.34
428.355	33.43
428.561	33.26
428.766	33.15
428.971	33.24
429.177	33.16
429.382	33.07
429.587	33.14
429.793	33.22
429.998	33.1
430.203	33.04
430.408	32.98
430.614	32.76
430.819	32.79
431.024	32.68
431.229	32.57
431.434	32.77
431.64	32.88
431.845	33.14
432.05	33.05
432.255	33.12
432.46	33.23
432.665	33.17
432.87	33.28
433.076	33.27
433.281	33.37
433.486	33.63
433.691	33.42
433.896	33.31
434.101	33.17
434.306	33.3
434.511	33.3
434.716	33.25
434.921	33.3
435.126	33.33
435.331	33.25
435.535	33.32
435.74	32.89
435.945	33
436.15	33.12
436.355	33.02
436.56	33.09
436.765	33.1
436.97	33.07
437.174	33.08
437.379	33.16
437.584	33.03
437.789	32.89
437.993	33.01
438.198	32.7
438.403	32.67
438.608	32.89
438.812	32.67
439.017	32.52
439.222	32.48
439.426	32.41
439.631	32.31
439.836	32.45
440.04	32.58
440.245	32.63
440.45	32.64
440.654	32.66
440.859	32.82
441.063	33.03
441.268	33.09
441.472	33.06
441.677	33.11
441.881	33.08
442.086	33.02
442.29	33.03
442.495	33.01
442.699	33.02
442.904	32.93
443.108	32.76
443.312	32.6
443.517	32.6
443.721	32.77
443.925	32.74
444.13	32.81
444.334	32.93
444.538	32.85
444.743	32.95
444.947	32.86
445.151	32.9
445.356	32.69
445.56	32.73
445.764	32.78
445.968	32.81
446.173	32.74
446.377	32.67
446.581	32.66
446.785	32.7
446.989	32.64
447.193	32.73
447.398	32.78
447.602	33.08
447.806	33.02
448.01	33.01
448.214	33.09
448.418	33
448.622	32.97
448.826	33.02
449.03	32.96
449.234	32.92
449.438	33.04
449.642	32.94
449.846	32.63
450.05	32.72
450.254	32.55
450.458	32.24
450.662	32.39
450.866	32.5
451.069	32.48
451.273	32.28
451.477	32.19
451.681	32.18
451.885	32.05
452.089	32.02
452.292	31.79
452.496	31.97
452.7	32.05
452.904	32.18
453.107	32.32
453.311	32.15
453.515	32.42
453.719	32.46
453.922	32.66
454.126	32.84
454.33	32.87
454.533	32.88
454.737	32.54
454.94	32.51
455.144	32.29
455.348	32.02
455.551	32.17
455.755	31.81
455.958	31.84
456.162	31.5
456.365	31.31
456.569	31.38
456.772	31.43
456.976	31.56
457.179	31.59
457.383	31.72
457.586	31.84
457.79	31.84
457.993	31.95
458.196	31.87
458.4	32.01
458.603	32.23
458.807	32.11
459.01	32.05
459.213	32.17
459.417	32.11
459.62	32.1
459.823	32.11
460.026	32.01
460.23	32.07
460.433	32.03
460.636	32.01
460.839	31.79
461.042	32.03
461.246	32.23
461.449	32.25
461.652	32.24
461.855	32.25
462.058	32.37
462.261	32.49
462.464	32.61
462.668	32.74
462.871	32.8
463.074	33.06
463.277	32.76
463.48	32.48
463.683	32.51
463.886	32.56
464.089	32.54
464.292	32.39
464.495	32.33
464.698	32.31
464.901	32.53
465.104	32.35
465.306	32.45
465.509	32.53
465.712	32.81
465.915	32.81
466.118	33.14
466.321	33.21
466.524	33.19
466.726	33.24
466.929	33.11
467.132	32.99
467.335	33.07
467.538	33.04
467.74	33.05
467.943	32.96
468.146	32.82
468.348	32.58
468.551	32.67
468.754	32.73
468.956	32.58
469.159	32.64
469.362	32.54
469.564	32.75
469.767	32.67
469.969	32.78
470.172	32.77
470.375	32.86
470.577	32.73
470.78	32.87
470.982	32.81
471.185	33.03
471.387	32.99
471.59	33.11
471.792	32.93
471.995	33.02
472.197	33.02
472.399	33.12
472.602	33.28
472.804	33.56
473.007	33.26
473.209	33.37
473.411	33.5
473.614	33.68
473.816	33.66
474.018	33.64
474.22	33.66
474.423	33.54
474.625	33.45
474.827	33.34
475.03	33.15
475.232	33.17
475.434	33.2
475.636	33.11
475.838	33.05
476.04	33.25
476.243	33.39
476.445	33.26
476.647	33.16
476.849	33.19
477.051	33.33
477.253	33.23
477.455	33.2
477.657	33.16
477.859	33.08
478.061	33.06
478.263	32.75
478.465	32.73
478.667	32.88
478.869	33.12
479.071	33.25
479.273	33.08
479.475	33.28
479.677	33.5
479.879	33.48
480.081	33.47
480.283	33.54
480.485	33.76
480.686	33.62
480.888	33.47
481.09	33.37
481.292	33.34
481.494	33.24
481.695	33.32
481.897	33.19
482.099	33.14
482.301	33.17
482.502	33.12
482.704	33
482.906	32.96
483.107	32.89
483.309	32.97
483.511	32.9
483.712	32.87
483.914	32.83
484.115	32.84
484.317	32.82
484.519	32.87
484.72	32.84
484.922	32.88
485.123	32.91
485.325	32.96
485.526	32.91
485.728	32.93
485.929	32.95
486.131	32.94
486.332	32.96
486.534	33.13
486.735	33.11
486.936	33.12
487.138	33.1
487.339	33.06
487.541	33.06
487.742	33.07
487.943	33.01
488.144	33.11
488.346	33.07
488.547	33.05
488.748	32.96
488.95	32.89
489.151	32.87
489.352	32.83
489.553	32.84
489.755	32.81
489.956	32.76
490.157	32.98
490.358	32.94
490.559	33.01
490.76	33.04
490.961	33.01
491.163	32.93
491.364	32.95
491.565	33.02
491.766	33.11
491.967	33.14
492.168	33.13
492.369	33.06
492.57	33.13
492.771	33.13
492.972	33.15
493.173	33.13
493.374	33.26
493.575	33.27
493.776	33.25
493.976	33.19
494.177	33.18
494.378	33.25
494.579	33.31
494.78	33.2
494.981	33.16
495.182	33.18
495.382	33.16
495.583	33.15
495.784	33.32
495.985	33.29
496.185	33.45
496.386	33.48
496.587	33.69
496.788	33.56
496.988	33.56
497.189	33.66
497.39	33.76
497.59	33.99
497.791	34
497.992	33.95
498.192	34.08
498.393	34
498.593	34.18
498.794	33.96
498.994	34.07
499.195	34.05
499.395	34.02
499.596	34.06
499.796	33.82
499.997	33.86
500.197	33.9
500.398	33.84
500.598	33.94
500.799	33.83
500.999	33.96
501.199	33.99
501.4	34.04
501.6	34
501.801	33.78
502.001	33.98
502.201	34
502.402	34.08
502.602	34.02
502.802	33.99
503.002	34.09
503.203	34.12
503.403	34.14
503.603	34.39
503.803	34.46
504.003	34.58
504.204	34.63
504.404	34.65
504.604	34.6
504.804	34.79
505.004	34.79
505.204	34.81
505.404	34.8
505.604	34.76
505.804	34.69
506.005	34.63
506.205	34.69
506.405	34.69
506.605	34.79
506.805	34.81
507.005	34.94
507.204	35.06
507.404	35.29
507.604	35.36
507.804	35.53
508.004	35.63
508.204	35.85
508.404	35.9
508.604	35.97
508.804	35.99
509.003	36.23
509.203	36.28
509.403	36.38
509.603	36.24
509.803	36.27
510.002	36.31
510.202	36.3
510.402	36.42
510.602	36.46
510.801	36.63
511.001	36.68
511.201	36.66
511.4	36.69
511.6	36.68
511.8	36.84
511.999	36.95
512.199	36.93
512.398	36.99
512.598	36.9
512.797	36.97
512.997	36.86
513.197	36.99
513.396	37
513.596	37.02
513.795	37.12
513.994	37.18
514.194	37.14
514.393	37.37
514.593	37.47
514.792	37.65
514.992	37.87
515.191	38.03
515.39	38.08
515.59	38.31
515.789	38.3
515.988	38.32
516.188	38.43
516.387	38.53
516.586	38.49
516.786	38.51
516.985	38.57
517.184	38.63
517.383	38.57
517.582	38.77
517.782	38.9
517.981	39.1
518.18	39.18
518.379	39.16
518.578	39.33
518.777	39.42
518.976	39.47
519.176	39.5
519.375	39.5
519.574	39.67
519.773	39.76
519.972	39.67
520.171	39.8
520.37	39.89
520.569	39.95
520.768	39.87
520.967	39.93
521.166	40.11
521.365	40.07
521.564	40.05
521.762	40.18
521.961	40.16
522.16	40.25
522.359	40.2
522.558	40.28
522.757	40.39
522.956	40.55
523.154	40.47
523.353	40.68
523.552	41.02
523.751	41.1
523.949	41.03
524.148	40.98
524.347	41.19
524.546	41.1
524.744	41.2
524.943	41.31
525.142	41.4
525.34	41.61
525.539	41.5
525.737	41.5
525.936	41.67
526.135	41.77
526.333	41.89
526.532	41.92
526.73	42.09
526.929	42.07
527.127	42.12
527.326	42.16
527.524	42.21
527.723	42.27
527.921	42.41
528.12	42.4
528.318	42.38
528.516	42.34
528.715	42.35
528.913	42.42
529.112	42.43
529.31	42.5
529.508	42.55
529.707	42.64
529.905	42.74
530.103	42.77
530.301	42.84
530.5	42.96
530.698	43.08
530.896	43.12
531.094	43.13
531.293	43.31
531.491	43.39
531.689	43.51
531.887	43.4
532.085	43.28
532.283	43.25
532.481	43.32
532.68	43.33
532.878	43.36
533.076	43.43
533.274	43.44
533.472	43.44
533.67	43.51
533.868	43.48
534.066	43.6
534.264	43.68
534.462	43.64
534.66	43.61
534.858	43.76
535.056	43.89
535.253	43.89
535.451	43.94
535.649	43.94
535.847	43.87
536.045	43.89
536.243	43.96
536.441	44.05
536.638	44.1
536.836	44.14
537.034	43.96
537.232	43.89
537.43	43.96
537.627	43.91
537.825	43.97
538.023	43.99
538.22	44
538.418	43.89
538.616	43.93
538.813	43.82
539.011	43.85
539.209	44
539.406	44.05
539.604	44.07
539.801	44.23
539.999	44.21
540.196	44.41
540.394	44.51
540.591	44.55
540.789	44.53
540.986	44.74
541.184	44.79
541.381	44.81
541.579	44.82
541.776	44.85
541.974	44.87
542.171	44.98
542.368	44.87
542.566	44.89
542.763	44.93
542.96	45.06
543.158	45.01
543.355	45.11
543.552	45.2
543.75	45.2
543.947	45.32
544.144	45.43
544.341	45.35
544.539	45.43
544.736	45.49
544.933	45.52
545.13	45.48
545.327	45.49
545.524	45.44
545.722	45.49
545.919	45.71
546.116	45.57
546.313	45.57
546.51	45.7
546.707	45.85
546.904	45.86
547.101	45.85
547.298	45.71
547.495	45.71
547.692	45.72
547.889	45.5
548.086	45.38
548.283	45.39
548.48	45.39
548.677	45.41
548.874	45.14
549.07	44.96
549.267	45.01
549.464	45.17
549.661	45.39
549.858	45.37
550.055	45.32
550.251	45.38
550.448	45.38
550.645	45.39
550.842	45.47
551.038	45.56
551.235	45.78
551.432	45.74
551.628	45.6
551.825	45.42
552.022	45.39
552.218	45.55
552.415	45.52
552.612	45.64
552.808	45.49
553.005	45.27
553.201	45.24
553.398	45.25
553.594	45.21
553.791	45.26
553.987	45.2
554.184	45.37
554.38	45.46
554.577	45.62
554.773	45.59
554.97	45.54
555.166	45.84
555.362	46.02
555.559	46.04
555.755	46.28
555.952	46.38
556.148	46.47
556.344	46.3
556.541	46.13
556.737	46.14
556.933	46.04
557.129	46.18
557.326	45.98
557.522	45.88
557.718	45.7
557.914	45.66
558.11	45.73
558.307	45.82
558.503	46.07
558.699	46.28
558.895	46.08
559.091	46.19
559.287	46.28
559.483	46.33
559.679	46.34
559.876	46.2
560.072	46.2
560.268	46.24
560.464	46.42
560.66	46.33
560.856	46.41
561.052	46.68
561.247	46.6
561.443	46.77
561.639	46.94
561.835	47.06
562.031	47.35
562.227	47.31
562.423	47.22
562.619	47.07
562.815	47.04
563.01	46.92
563.206	46.74
563.402	46.84
563.598	46.47
563.793	46.25
563.989	46.3
564.185	46.29
564.381	46.38
564.576	46.13
564.772	46.12
564.968	46.12
565.163	46.26
565.359	46.31
565.555	46.31
565.75	46.63
565.946	46.69
566.141	46.53
566.337	46.47
566.532	46.39
566.728	46.7
566.923	46.76
567.119	46.62
567.314	46.48
567.51	46.38
567.705	46.48
567.901	46.28
568.096	46.24
568.292	46.39
568.487	46.31
568.682	46.22
568.878	46.14
569.073	45.96
569.268	46
569.464	46.03
569.659	46.11
569.854	46.16
570.05	46.13
570.245	46.16
570.44	45.96
570.635	46.25
570.831	46.31
571.026	46.47
571.221	46.72
571.416	46.66
571.611	46.67
571.806	46.66
572.002	46.62
572.197	46.69
572.392	46.72
572.587	46.82
572.782	46.79
572.977	46.98
573.172	46.93
573.367	46.84
573.562	46.92
573.757	46.88
573.952	46.9
574.147	47.05
574.342	47.03
574.537	47.07
574.732	47.21
574.927	47.14
575.121	47.08
575.316	46.9
575.511	46.88
575.706	47.14
575.901	47.25
576.096	47.22
576.29	47.04
576.485	47.13
576.68	46.91
576.875	46.71
577.069	46.65
577.264	46.59
577.459	46.8
577.654	46.8
577.848	46.53
578.043	46.41
578.238	46.44
578.432	46.39
578.627	46.3
578.821	46.57
579.016	46.8
579.21	46.81
579.405	46.75
579.6	46.54
579.794	46.62
579.989	46.63
580.183	46.41
580.378	46.3
580.572	46.26
580.766	46.4
580.961	46.65
581.155	46.42
581.35	46.47
581.544	46.48
581.738	46.48
581.933	46.48
582.127	46.52
582.321	46.7
582.516	46.84
582.71	46.82
582.904	46.72
583.099	46.35
583.293	46.41
583.487	46.47
583.681	46.59
583.875	46.64
584.07	46.55
584.264	46.54
584.458	46.82
584.652	46.93
584.846	47.01
585.04	47.39
585.234	47.48
585.428	47.33
585.623	47.29
585.817	47.15
586.011	47.09
586.205	47.04
586.399	47.15
586.593	47.07
586.787	47.17
586.981	47.16
587.174	46.91
587.368	46.72
587.562	46.87
587.756	46.85
587.95	46.92
588.144	47.35
588.338	47.57
588.532	47.59
588.725	47.44
588.919	47.39
589.113	47.37
589.307	47.32
589.501	47.35
589.694	47.59
589.888	47.99
590.082	48.02
590.275	47.83
590.469	47.48
590.663	47.26
590.856	47.32
591.05	47.31
591.244	47.52
591.437	47.62
591.631	48
591.824	47.78
592.018	47.5
592.212	47.64
592.405	47.48
592.599	47.63
592.792	47.64
592.986	47.67
593.179	47.89
593.372	47.74
593.566	47.59
593.759	47.54
593.953	47.73
594.146	47.65
594.339	47.51
594.533	47.42
594.726	47.41
594.92	47.42
595.113	47.56
595.306	47.13
595.499	47.38
595.693	47.51
595.886	47.61
596.079	47.43
596.272	47.35
596.466	47.53
596.659	47.72
596.852	47.83
597.045	47.72
597.238	47.63
597.431	47.8
597.624	47.64
597.818	47.57
598.011	47.45
598.204	47.39
598.397	47.3
598.59	47.14
598.783	47.1
598.976	47.14
599.169	47.35
599.362	47.33
599.555	47.39
599.748	47.1
599.941	47.09
600.134	46.91
600.326	46.99
600.519	47.31
600.712	47.29
600.905	47.49
601.098	47.45
601.291	47.67
601.483	47.77
601.676	47.6
601.869	48.03
602.062	48.01
602.255	48.02
602.447	48.32
602.64	48.43
602.833	48.49
603.025	48.35
603.218	48.29
603.411	48.36
603.603	48.44
603.796	48.76
603.989	48.78
604.181	48.92
604.374	49.05
604.566	49.03
604.759	48.86
604.951	48.76
605.144	48.9
605.336	49.02
605.529	49.09
605.721	49
605.914	48.66
606.106	48.62
606.299	48.53
606.491	48.53
606.683	48.39
606.876	48.32
607.068	48.34
607.26	48.17
607.453	48.11
607.645	47.86
607.837	47.99
608.03	48.28
608.222	48.18
608.414	48.28
608.606	48.22
608.799	48.14
608.991	48.05
609.183	48.55
609.375	48.61
609.567	48.61
609.759	48.71
609.952	48.69
610.144	48.49
610.336	48.5
610.528	48.28
610.72	48.12
610.912	48.11
611.104	48.46
611.296	47.95
611.488	47.68
611.68	47.49
611.872	47.35
612.064	47.22
612.256	47.12
612.448	47.08
612.64	47.12
612.832	47.45
613.023	47.64
613.215	47.6
613.407	47.76
613.599	47.86
613.791	47.87
613.983	48.06
614.174	47.81
614.366	47.81
614.558	47.75
614.75	47.79
614.941	47.38
615.133	46.92
615.325	46.59
615.516	46.68
615.708	46.97
615.9	47.16
616.091	47.37
616.283	47.72
616.475	47.76
616.666	47.83
616.858	48.03
617.049	48.57
617.241	49
617.432	49.47
617.624	48.99
617.815	48.84
618.007	48.82
618.198	48.59
618.39	48.73
618.581	48.92
618.773	49.01
618.964	48.82
619.155	48.26
619.347	48.08
619.538	47.74
619.729	47.72
619.921	47.75
620.112	48.19
620.303	47.85
620.494	48.06
620.686	48.05
620.877	48.01
621.068	48.1
621.259	48.53
621.451	48.32
621.642	48.61
621.833	49.08
622.024	49.09
622.215	48.78
622.406	49.06
622.597	48.62
622.788	48.51
622.98	48.65
623.171	48.73
623.362	48.8
623.553	49
623.744	48.38
623.935	48.29
624.126	48.6
624.317	48.67
624.508	48.67
624.698	48.9
624.889	48.95
625.08	48.39
625.271	48.37
625.462	48.28
625.653	48.28
625.844	48.49
626.034	48.24
626.225	48.07
626.416	47.88
626.607	47.89
626.798	47.87
626.988	47.65
627.179	47.89
627.37	48.05
627.56	47.91
627.751	47.95
627.942	47.99
628.132	48.28
628.323	48.2
628.514	48.21
628.704	48.42
628.895	48.39
629.085	48.67
629.276	48.77
629.466	48.55
629.657	48.54
629.847	48.39
630.038	48.39
630.228	48.22
630.419	48.23
630.609	48.1
630.8	47.8
630.99	47.65
631.181	47.81
631.371	47.89
631.561	47.63
631.752	47.92
631.942	47.93
632.132	47.69
632.323	47.9
632.513	47.92
632.703	47.9
632.893	47.65
633.084	47.94
633.274	47.89
633.464	47.89
633.654	48
633.844	47.78
634.034	48.1
634.225	48.55
634.415	48.36
634.605	48.55
634.795	48.55
634.985	49.15
635.175	48.89
635.365	49
635.555	48.88
635.745	49.14
635.935	49.08
636.125	49.17
636.315	49.34
636.505	49.44
636.695	49.35
636.885	49.42
637.075	49.14
637.265	48.97
637.455	48.72
637.644	48.57
637.834	48.52
638.024	48.48
638.214	48.62
638.404	48.23
638.593	48.14
638.783	47.77
638.973	48.18
639.163	48.06
639.352	48.03
639.542	47.84
639.732	48.07
639.921	47.92
640.111	47.62
640.301	47.4
640.49	47.31
640.68	47.66
640.87	47.97
641.059	47.36
641.249	47.48
641.438	47.68
641.628	47.7
641.817	47.72
642.007	47.29
642.196	47.94
642.386	47.74
642.575	47.63
642.764	47.15
642.954	47.29
643.143	47.93
643.333	47.79
643.522	47.86
643.711	48.08
643.901	47.96
644.09	48.87
644.279	48.65
644.469	48.27
644.658	48.68
644.847	49.04
645.036	49.07
645.226	48.86
645.415	48.8
645.604	49
645.793	49.04
645.982	48.66
646.171	48.42
646.361	48.25
646.55	48.68
646.739	48.34
646.928	48.12
647.117	47.7
647.306	47.55
647.495	47.68
647.684	47.34
647.873	47.44
648.062	48.02
648.251	47.7
648.44	48.06
648.629	48
648.818	48.21
649.007	48.25
649.196	48.28
649.384	48.31
649.573	48.43
649.762	48.48
649.951	48.08
650.14	48.06
650.328	48.05
650.517	47.82
650.706	47.85
650.895	47.59
651.083	47.73
651.272	47.94
651.461	47.79
651.65	47.77
651.838	47.58
652.027	47.72
652.216	47.63
652.404	47.76
652.593	47.86
652.781	47.86
652.97	47.46
653.158	47.3
653.347	47.48
653.535	47.41
653.724	47.19
653.912	47.63
654.101	47.4
654.289	47.55
654.478	47.71
654.666	48.21
654.855	48.04
655.043	48.64
655.231	48.51
655.42	48.31
655.608	48.79
655.796	48.61
655.985	48.78
656.173	48.97
656.361	49.05
656.55	48.45
656.738	47.93
656.926	47.73
657.114	47.81
657.302	47.85
657.491	48.22
657.679	47.58
657.867	47.98
658.055	47.82
658.243	47.78
658.431	47.44
658.619	47.85
658.807	48.05
658.996	48.84
659.184	48.85
659.372	48.9
659.56	48.6
659.748	49.16
659.936	49.14
660.124	48.98
660.311	49.02
660.499	49.06
660.687	49.18
660.875	49.04
661.063	48.17
661.251	47.85
661.439	47.99
661.627	47.96
661.814	47.82
662.002	47.09
662.19	47.01
662.378	47.11
662.565	47.21
662.753	47.33
662.941	47.11
663.129	47.7
663.316	48.2
663.504	48.03
663.692	47.87
663.879	47.79
664.067	48.29
664.254	48.37
664.442	48.5
664.63	48.61
664.817	48.87
665.005	48.67
665.192	48.12
665.38	48.19
665.567	48
665.755	47.96
665.942	47.92
666.13	48.33
666.317	48.03
666.504	47.94
666.692	47.48
666.879	46.82
667.067	47.45
667.254	47.38
667.441	46.91
667.629	47.21
667.816	47.68
668.003	47.79
668.19	47.91
668.378	48.26
668.565	47.68
668.752	48.32
668.939	48.37
669.127	47.95
669.314	48.26
669.501	48.33
669.688	48.29
669.875	48.39
670.062	48.41
670.249	47.98
670.436	48.07
670.623	48.67
670.81	48.47
670.997	48.86
671.184	48.86
671.371	49.58
671.558	49.78
671.745	49.39
671.932	49.14
672.119	49.04
672.306	49.07
672.493	48.43
672.68	48.22
672.867	48.07
673.054	47.86
673.24	47.98
673.427	46.6
673.614	46.68
673.801	46.88
673.988	46.55
674.174	46.86
674.361	46.83
674.548	47.65
674.734	47.67
674.921	47.72
675.108	47.89
675.294	47.83
675.481	48.6
675.668	48.36
675.854	48.62
676.041	48.93
676.227	48.76
676.414	49.07
676.601	48.46
676.787	48.38
676.974	48.19
677.16	48.39
677.347	48.48
677.533	48.5
677.719	48.66
677.906	48.73
678.092	48.51
678.279	48.25
678.465	47.79
678.651	48.43
678.838	48.67
679.024	48.92
679.21	48.34
679.397	48.57
679.583	48.52
679.769	48.51
679.955	48.25
680.142	48.42
680.328	48.46
680.514	48.5
680.7	48.61
680.886	48.65
681.073	48.4
681.259	48.41
681.445	48.26
681.631	47.95
681.817	48.1
682.003	48
682.189	47.7
682.375	47.58
682.561	47.55
682.747	47.38
682.933	47.24
683.119	47.1
683.305	47.35
683.491	47.03
683.677	46.97
683.863	46.61
684.049	47.18
684.235	47.05
684.42	47.15
684.606	47.28
684.792	47
684.978	46.98
685.164	47.43
685.349	47.27
685.535	47.42
685.721	47.51
685.907	47.4
686.092	46.72
686.278	47.22
686.464	46.98
686.649	47.07
686.835	46.96
687.021	47.02
687.206	47.16
687.392	47.01
687.577	47.16
687.763	47.37
687.948	47.88
688.134	47.88
688.319	47.69
688.505	48.07
688.69	48.14
688.876	48.35
689.061	48.42
689.247	48.06
689.432	48.17
689.618	47.86
689.803	48.14
689.988	47.81
690.174	47.72
690.359	47.54
690.544	47.17
690.73	46.98
690.915	47.12
691.1	47.22
691.285	47.43
691.471	47.4
691.656	47.76
691.841	47.54
692.026	47.91
692.211	48.2
692.396	48.45
692.582	48.82
692.767	48.85
692.952	48.24
693.137	48.04
693.322	47.96
693.507	48.17
693.692	48.31
693.877	48.44
694.062	49.05
694.247	49.16
694.432	48.92
694.617	49.01
694.802	48.77
694.987	49.19
695.172	49.19
695.357	49.03
695.541	48.87
695.726	48.87
695.911	48.34
696.096	47.46
696.281	47.82
696.466	48.14
696.65	48.06
696.835	48.17
697.02	48.09
697.204	48.44
697.389	48.2
697.574	48.4
697.759	47.98
697.943	48.33
698.128	48.02
698.312	47.73
698.497	47.85
698.682	48.11
698.866	48.15
699.051	47.96
699.235	47.73
699.42	47.75
699.604	47.51
699.789	47.64
699.973	47.53
700.158	47.91
700.342	47.9
700.527	47.4
700.711	46.76
700.895	46.8
701.08	46.98
701.264	47.29
701.448	47.6
701.633	47.86
701.817	48.14
702.001	47.95
702.186	47.79
702.37	47.61
702.554	48.09
702.738	48.27
702.923	48.32
703.107	48.46
703.291	48.13
703.475	47.68
703.659	47.57
703.843	47.11
704.027	47.31
704.212	46.84
704.396	46.98
704.58	46.72
704.764	46.48
704.948	46.35
705.132	46.14
705.316	46.3
705.5	46.83
705.684	46.32
705.868	46.55
706.052	45.74
706.235	45.55
706.419	45.72
706.603	45.62
706.787	45.92
706.971	45.53
707.155	46.3
707.339	45.29
707.522	45.25
707.706	46.1
707.89	46.16
708.074	47.01
708.257	47.65
708.441	47.7
708.625	48.19
708.808	48.59
708.992	48.37
709.176	47.98
709.359	48.24
709.543	47.94
709.727	47.46
709.91	47.14
710.094	47.55
710.277	47.12
710.461	46.45
710.644	46.58
710.828	45.98
711.011	46.26
711.195	45.5
711.378	46.03
711.562	46.38
711.745	46.51
711.928	46.38
712.112	46.13
712.295	46.69
712.478	47.94
712.662	46.7
712.845	47.11
713.028	47.12
713.212	47.29
713.395	46.6
713.578	45.82
713.761	45.53
713.945	46.43
714.128	46.77
714.311	45.96
714.494	45.31
714.677	46.21
714.86	46.17
715.043	46.32
715.227	46.67
715.41	47.12
715.593	47.2
715.776	46.49
715.959	45.73
716.142	46.01
716.325	46.27
716.508	45.65
716.691	45.44
716.874	44.79
717.057	44.87
717.239	44.41
717.422	43.78
717.605	44.63
717.788	45.31
717.971	45.95
718.154	45.32
718.337	45.33
718.519	45.41
718.702	45.78
718.885	45.81
719.068	45.79
719.25	46.37
719.433	47.26
719.616	46.71
719.798	47.27
719.981	45.88
720.164	46.71
720.346	46.75
720.529	47.89
720.712	48.42
720.894	49.05
721.077	48.24
721.259	47.86
721.442	48.28
721.624	48.9
721.807	48.47
721.989	49.09
722.172	47.86
722.354	47.89
722.537	46.6
722.719	44.73
722.901	44.98
723.084	45.13
723.266	45.38
723.448	44.57
723.631	44.49
723.813	44.65
723.995	45.31
724.178	45
724.36	44.89
724.542	44.17
724.724	45.94
724.907	45.43
725.089	46.24
725.271	47.2
725.453	46.75
725.635	46.69
725.817	45.64
725.999	45.15
726.181	45.37
726.364	45.29
726.546	46.78
726.728	45.92
726.91	46.15
727.092	46.04
727.274	45.5
727.456	46.87
727.638	46.19
727.819	47.29
728.001	47.52
728.183	47.99
728.365	48.64
728.547	48.33
728.729	48.19
728.911	47.43
729.093	47.17
729.274	47.05
729.456	45.82
729.638	46.11
729.82	45.39
730.001	44.97
730.183	45.08
730.365	45.42
730.546	45.61
730.728	45
730.91	45.45
731.091	45.03
731.273	44.89
731.455	45.1
731.636	45.28
731.818	45.66
731.999	45.61
732.181	45.48
732.362	44.85
732.544	45.02
732.725	45.9
732.907	45.9
733.088	46.35
733.27	46.7
733.451	46.69
733.633	46.71
733.814	46.27
733.995	46.45
734.177	46.84
734.358	47
734.539	46.89
734.721	47.29
734.902	47.51
735.083	48.3
735.264	47.59
735.446	48.45
735.627	48.42
735.808	48.33
735.989	48.24
736.17	46.99
736.351	46.57
736.533	46.33
736.714	45.37
736.895	45.41
737.076	44.1
737.257	44.21
737.438	44.43
737.619	44.58
737.8	45.25
737.981	44.35
738.162	44.45
738.343	44.23
738.524	43.84
738.705	44.55
738.886	43.99
739.067	45.16
739.247	45.74
739.428	44.39
739.609	44.41
739.79	44.51
739.971	45.23
740.151	45.77
740.332	44.69
740.513	45.11
740.694	44.01
740.874	43.57
741.055	42.52
741.236	41.84
741.417	42.01
741.597	41.9
741.778	41.95
741.958	41.9
742.139	42.53
742.32	44.24
742.5	42.41
742.681	42.94
742.861	43.71
743.042	43.04
743.222	42.69
743.403	42.61
743.583	41.51
743.764	41.33
743.944	41.34
744.124	40.7
744.305	39.77
744.485	41.47
744.666	41.82
744.846	41.23
745.026	42.81
745.207	41.55
745.387	41.22
745.567	41.76
745.747	40.92
745.928	41.83
746.108	40.5
746.288	41.33
746.468	42.55
746.648	42.32
746.829	43.31
747.009	42.73
747.189	44.61
747.369	44.52
747.549	45.28
747.729	46.26
747.909	45.73
748.089	46.3
748.269	46.77
748.449	46.35
748.629	46.69
748.809	45.83
748.989	45.11
749.169	44.2
749.349	45.31
749.529	44.26
749.709	43.63
749.889	44.01
750.068	45.18
750.248	44.89
750.428	43.76
750.608	44.13
750.788	43.37
750.967	43.7
751.147	44.54
751.327	43.58
751.507	45.25
751.686	45.81
751.866	46.14
752.046	45.02
752.225	44.84
752.405	45.36
752.585	45.32
752.764	46.66
752.944	46.65
753.123	46.9
753.303	47.62
753.482	46.62
753.662	47.56
753.841	47.38
754.021	48.14
754.2	47.43
754.38	47.35
754.559	45.82
754.739	45.31
754.918	45.05
755.097	43.78
755.277	44.17
755.456	44.91
755.635	43.39
755.815	43.38
755.994	42.34
756.173	43.69
756.352	42.59
756.532	42.86
756.711	43.74
756.89	45.21
757.069	46.22
757.248	46.24
757.427	46.7
757.607	46.04
757.786	44.13
757.965	45.16
758.144	43.61
758.323	44.2
758.502	44.12
758.681	43.83
758.86	42.67
759.039	42.34
759.218	40.26
759.397	39.2
759.576	39.73
759.755	40.38
759.934	39.72
760.113	41.97
760.291	42.16
760.47	43.45
760.649	43.51
760.828	44.51
761.007	43.75
761.186	45.23
761.364	45.57
761.543	46.05
761.722	46.67
761.901	47.47
762.079	46
762.258	46.43
762.437	45.93
762.615	46.11
762.794	45.44
762.972	45.55
763.151	45.6
763.33	45.07
763.508	45.82
763.687	45.73
763.865	44.83
764.044	44.38
764.222	43.65
764.401	43.68
764.579	43.67
764.758	44.19
764.936	43.89
765.114	44.33
765.293	45.26
765.471	44.18
765.65	43.39
765.828	43.77
766.006	44.68
766.184	45.61
766.363	44.99
766.541	44.74
766.719	44.66
766.898	45.9
767.076	45.24
767.254	44.71
767.432	44.04
767.61	45.19
767.788	44.27
767.967	43.2
768.145	42.36
768.323	42.47
768.501	40.72
768.679	39.84
768.857	39.93
769.035	39.79
769.213	39.07
769.391	39.02
769.569	38.44
769.747	39.08
769.925	39.64
770.103	39.14
770.281	40.41
770.459	40.92
770.636	41.8
770.814	40.95
770.992	39.76
771.17	38.89
771.348	40.52
771.525	39.21
771.703	38.86
771.881	38.64
772.059	40.13
772.236	39.63
772.414	40.99
772.592	40.56
772.769	41.19
772.947	41.26
773.125	40.2
773.302	39.06
773.48	41.33
773.657	41.59
773.835	41.96
774.013	41.31
774.19	39.97
774.368	39.34
774.545	39.3
774.723	37.76
774.9	39.51
775.077	41.54
775.255	41.78
775.432	41.02
775.61	42.26
775.787	41.86
775.964	42.37
776.142	41.74
776.319	40.58
776.496	40.55
776.674	41.1
776.851	39.54
777.028	36.98
777.205	36.23
777.382	37.39
777.56	35.65
777.737	35.6
777.914	35.3
778.091	38.26
778.268	38.58
778.445	36.95
778.622	36.27
778.8	37.64
778.977	38.71
779.154	39.81
779.331	37.16
779.508	39.82
779.685	40.95
779.862	41.73
780.038	40.41
780.215	39.61
780.392	39.61
780.569	40.87
780.746	40
780.923	41.24
781.1	39.49
781.277	40.93
781.453	37.84
781.63	37.18
781.807	35.31
781.984	35.52
782.16	37.56
782.337	39.13
782.514	40.61
782.691	42.64
782.867	41.5
783.044	43.26
783.221	41.79
783.397	44.2
783.574	42.28
783.75	43.26
783.927	42.11
784.103	43.79
784.28	43.1
784.456	44.15
784.633	41.47
784.809	43.72
784.986	42.17
785.162	44.8
785.339	44.57
785.515	46.86
785.692	46.93
785.868	47.75
786.044	46.8
786.221	47.81
786.397	43.78
786.573	44.05
786.749	44.29
786.926	44.74
787.102	44.02
787.278	45.06
787.454	45.98
787.631	44.19
787.807	44.23
787.983	46.52
788.159	46.49
788.335	47.63
788.511	49.9
788.687	48.37
788.863	48.81
789.039	51.61
789.216	49.25
789.392	48.13
789.568	51.61
789.744	51.69
789.919	50.57
790.095	50.5
790.271	50
790.447	48.08
790.623	48.85
790.799	49.21
790.975	46.22
791.151	46.85
791.327	48.59
791.502	47.18
791.678	47.79
791.854	45.32
792.03	44.47
792.205	46.14
792.381	44.34
792.557	42.71
792.733	43.76
792.908	42.82
793.084	41.8
793.259	39.99
793.435	41.4
793.611	39.3
793.786	37.24
793.962	36.47
794.137	37.45
794.313	39.57
794.488	41.28
794.664	40.47
794.839	41.88
795.015	39.53
795.19	39.57
795.366	36.78
795.541	37.29
795.716	36.88
795.892	38.25
796.067	38.91
796.242	38.47
796.418	37.26
796.593	38.9
796.768	38.73
796.944	44.32
797.119	42.86
797.294	44.34
797.469	44.13
797.644	46.88
797.82	48.45
797.995	47.94
798.17	47.82
798.345	49.91
798.52	48.91
798.695	47.66
798.87	45.9
799.045	47.78
799.22	47.91
799.395	47.9
799.57	48.38
799.745	46.05
799.92	47.03
800.095	46.11
800.27	43.8
800.445	42.97
800.62	44.22
800.795	40.58
800.97	38.59
801.145	35.74
801.319	35.54
801.494	34.17
801.669	36.44
801.844	35.54
802.018	37.15
802.193	37.6
802.368	38.68
802.543	39.22
802.717	39.04
802.892	45.03
803.067	47.44
803.241	46.25
803.416	45.02
803.59	41.82
803.765	38.97
803.94	37.32
804.114	38.81
804.289	38.02
804.463	38.36
804.638	38.89
804.812	36.55
804.986	37.14
805.161	38.51
805.335	40.69
805.51	40.17
805.684	38.83
805.858	39.26
806.033	36.96
806.207	34.05
806.381	34.46
806.556	36.95
806.73	34.33
806.904	31.28
807.078	32.08
807.253	32.8
807.427	32.3
807.601	36.33
807.775	38.21
807.949	39.73
808.123	43.7
808.298	43.86
808.472	42.76
808.646	41.76
808.82	44.9
808.994	44.41
809.168	42.33
809.342	42.74
809.516	41.93
809.69	42.76
809.864	42.78
810.038	41.18
810.212	37.65
810.385	38.61
810.559	40.09
810.733	40.23
810.907	43.17
811.081	43.66
811.255	43.22
811.428	41.3
811.602	39.31
811.776	41.08
811.95	40.14
812.123	39.5
812.297	39.48
812.471	37.77
812.644	35.14
812.818	35.45
812.992	37.25
813.165	41.33
813.339	39.54
813.512	42.67
813.686	42.37
813.86	42.22
814.033	46.97
814.207	44.82
814.38	47.96
814.554	48.45
814.727	48.59
814.9	47.79
815.074	47.88
815.247	50.32
815.421	48.08
815.594	44.29
815.767	45.93
815.941	42.34
816.114	42.8
816.287	41.46
816.46	41.53
816.634	36.77
816.807	34.99
816.98	32.25
817.153	30.67
817.327	26.71
817.5	27.08
817.673	28.45
817.846	26.62
818.019	26.94
818.192	30.23
818.365	30.39
818.538	33.89
818.711	34.23
818.884	36.05
819.057	37.36
819.23	41.24
819.403	44.01
819.576	43.44
819.749	43.54
819.922	44.21
820.095	40.56
820.268	42.5
820.441	42.29
820.614	41.94
820.786	41.5
820.959	44.52
821.132	44.38
821.305	43.2
821.477	43.45
821.65	44.82
821.823	44.78
821.996	45.82
822.168	45.33
822.341	45.45
822.514	45.64
822.686	45.91
822.859	44.96
823.031	44.44
823.204	44.72
823.376	44.4
823.549	43.88
823.722	43.92
823.894	42.94
824.067	42.01
824.239	41.36
824.411	40.68
824.584	40.11
824.756	40.12
824.929	39.7
825.101	39.86
825.273	39.35
825.446	39.37
825.618	38.95
825.79	40.33
825.963	40.79
826.135	40.29
826.307	40.6
826.479	40.51
826.652	39.73
826.824	40.59
826.996	40.83
827.168	42.1
827.34	43.1
827.512	43.02
827.684	42.07
827.856	42.19
828.029	43.44
828.201	42.58
828.373	42.55
828.545	42.82
828.717	41.85
828.889	38.89
829.061	37.22
829.232	34.79
829.404	33.9
829.576	33.41
829.748	34.33
829.92	33.73
830.092	35.03
830.264	35.46
830.436	31.88
830.607	33.23
830.779	37.73
830.951	35.75
831.123	36.86
831.294	37.79
831.466	39.39
831.638	35.51
831.809	32.99
831.981	31.19
832.153	28.95
832.324	33.42
832.496	33.11
832.667	29.38
832.839	32.93
833.011	35.36
833.182	35.51
833.354	34.08
833.525	39.5
833.697	40.5
833.868	42.7
834.039	42.37
834.211	42.81
834.382	42.5
834.554	41.38
834.725	39.66
834.896	38.81
835.068	39.78
835.239	43.45
835.41	44.03
835.581	45.58
835.753	43.48
835.924	44.94
836.095	43.01
836.266	43.69
836.438	46.41
836.609	49.1
836.78	48.05
836.951	44.44
837.122	41.68
837.293	39.35
837.464	38.83
837.635	41.96
837.806	39.32
837.977	42.4
838.148	44.06
838.319	39.04
838.49	37.3
838.661	41.07
838.832	41.84
839.003	38.11
839.174	36.39
839.345	36.25
839.516	28.94
839.687	31.62
839.857	29.03
840.028	28.03
840.199	34.11
840.37	34.59
840.54	27.42
840.711	29.04
840.882	31.04
841.053	32.41
841.223	31.07
841.394	35.38
841.564	33.94
841.735	34.93
841.906	36.41
842.076	34.53
842.247	37.86
842.417	45.2
842.588	43.06
842.758	47.01
842.929	53.27
843.099	52.99
843.27	51.74
843.44	54.38
843.611	50.9
843.781	40.82
843.951	42.21
844.122	39.26
844.292	39.07
844.462	43.87
844.633	39.3
844.803	31.23
844.973	33.61
845.144	31.48
845.314	28.5
845.484	31.13
845.654	35.23
845.824	35.49
845.995	37.28
846.165	25.8
846.335	21.43
846.505	24.47
846.675	27.36
846.845	25.91
847.015	30.08
847.185	29.38
847.355	34.52
847.525	34.91
847.695	40
847.865	37.87
848.035	38.65
848.205	37.47
848.375	27.74
848.545	20.03
848.715	17.02
848.884	11.83
849.054	12.88
849.224	6.5
849.394	2.5
849.564	-8.85
849.733	-2.8
849.903	6.19
850.073	4.57
850.243	11.8
850.412	16.37
850.582	10.6
850.752	-1.23
850.921	7.9
851.091	9.38
851.26	14.53
851.43	24.29
851.599	23.87
851.769	17.21
851.939	24.96
852.108	27.13
852.278	39.78
852.447	44.12
852.616	53.13
852.786	52.39
852.955	56.17
853.125	53.88
853.294	60.38
853.463	54.77
853.633	61.68
853.802	61.39
853.971	56.9
854.141	44.08
854.31	46.77
854.479	45.4
854.648	43.74
854.818	37.97
854.987	38.12
855.156	22.05
855.325	28.64
855.494	19.77
855.663	28.84
855.832	25.06
856.001	31.52
856.171	35.94
856.34	40.01
856.509	42.96
856.678	43.83
856.847	46.83
857.016	58.04
857.185	49.19
857.353	61.6
857.522	53.68
857.691	54.93
857.86	52.6
858.029	45.38
858.198	34.59
858.367	27.48
858.535	22.39
858.704	11.51
858.873	8.12
859.042	13.69
859.21	6.44
859.379	4.46
859.548	2.82
859.717	-15.57
859.885	-4.41
860.054	-0.69
860.222	1.69
860.391	-2.83
860.56	14.89
860.728	10.37
860.897	15.15
861.065	7.95
861.234	-20.26
861.402	-4.46
861.571	-9
861.739	-23.28
861.908	-12.21
862.076	-5.08
862.244	1.5
862.413	-7.23
862.581	10.68
862.749	14.02
862.918	20.15
863.086	41.09
863.254	39.86
863.423	38.57
863.591	45.97
863.759	52.13
863.927	51.54
864.096	59.54
864.264	61.9
864.432	52.6
864.6	35.79
864.768	29.79
864.936	21.91
865.104	15.48
865.272	25.12
865.44	2.43
865.608	1.81
865.776	2.76
865.944	-0.35
866.112	5.67
866.28	-1.99
866.448	11.38
866.616	11.9
866.784	13.17
866.952	29.66
867.12	21.43
867.288	38
867.455	38.66
867.623	42.69
867.791	46.53
867.959	43.29
868.127	38.51
868.294	39.62
868.462	36.94
868.63	37.76
868.797	28.8
868.965	20.77
869.133	-9.07
869.3	-25.27
869.468	-34.36
869.636	-12.48
869.803	-17.43
869.971	-5.51
870.138	-8.4
870.306	-12.87
870.473	-46.05
870.641	-58.6
870.808	4.2
870.975	33.19
871.143	39.41
871.31	53.96
871.478	31.87
871.645	43.24
871.812	57.25
871.98	56.52
872.147	54.42
872.314	60.74
872.482	42.93
872.649	34.81
872.816	27.39
872.983	44.47
873.15	44.75
873.318	51.41
873.485	59.73
873.652	45.51
873.819	36.47
873.986	46.84
874.153	37.35
874.32	34.45
874.487	18.97
874.654	4.3
874.821	-6.53
874.988	-24.6
875.155	-28.09
875.322	-17.34
875.489	-7.67
875.656	-3.31
875.823	6.29
875.99	14.9
876.157	25.81
876.324	26.87
876.49	32.87
876.657	29.41
876.824	38.13
876.991	43.54
877.157	34.12
877.324	31.93
877.491	31.98
877.658	24.78
877.824	24.29
877.991	18.32
878.157	27.24
878.324	28.59
878.491	31.77
878.657	14.23
878.824	9.46
878.99	19.16
879.157	28.85
879.323	34.59
879.49	39.24
879.656	31.06
879.823	38.78
879.989	39.48
880.156	41.17
880.322	31.89
880.488	35.71
880.655	41.13
880.821	33.7
880.987	32.11
881.154	28.07
881.32	22.33
881.486	28.71
881.652	23.59
881.819	23.84
881.985	21.47
882.151	29.93
882.317	31.71
882.483	31.8
882.649	32.47
882.816	30.72
882.982	31.5
883.148	32.62
883.314	33.22
883.48	34.96
883.646	36.03
883.812	37.53
883.978	38.45
884.144	40.69
884.31	40.69
884.476	42.83
884.642	44.52
884.807	42.12
884.973	41.62
885.139	42.85
885.305	44.18
885.471	43.1
885.637	43.57
885.802	44.03
885.968	39.96
886.134	39.46
886.3	41.36
886.465	41.36
886.631	42.94
886.797	46.62
886.962	42.37
887.128	40.63
887.293	41.59
887.459	38.72
887.625	33.91
887.79	32.47
887.956	25.65
888.121	19.25
888.287	16.13
888.452	23.86
888.618	15.74
888.783	13.89
