Data from 2937826_Reflection_3.txt Node
Date: Wed Jul 15 17:02:33 EDT 2015
User: robert
Spectrometer: USB4E03001
Autoset integration time: false
Trigger mode: 4
Integration Time (sec): 1.000000E-1
Scans to average: 10
Electric dark correction enabled: true
Nonlinearity correction enabled: false
Boxcar width: 5
Stray light correction enabled: false
XAxis mode: Wavelengths
Stop averaging: false
Number of Pixels in Spectrum: 3648
>>>>>Begin Spectral Data<<<<<
177.566	90.6
177.785	95.14
178.005	94.16
178.225	97.38
178.445	94.29
178.665	62.04
178.885	-525.28
179.105	97.28
179.324	127.75
179.544	133.08
179.764	142.17
179.984	143.9
180.204	165.76
180.423	150.26
180.643	131.8
180.863	143.12
181.083	135.22
181.302	165.89
181.522	187.12
181.742	160.33
181.961	129.74
182.181	153.79
182.401	131.5
182.621	155.08
182.84	150.37
183.06	171.51
183.279	178.79
183.499	164.22
183.719	152.53
183.938	223.74
184.158	223.78
184.377	305.85
184.597	280.83
184.816	382.61
185.036	372.44
185.256	1302.31
185.475	763.18
185.695	460.91
185.914	934.59
186.134	765.18
186.353	481.67
186.572	408.83
186.792	361.96
187.011	297.66
187.231	214.11
187.45	199.84
187.67	165.41
187.889	176.55
188.108	196.08
188.328	170
188.547	245.1
188.766	188.73
188.986	214.78
189.205	168.92
189.424	193.6
189.644	198.66
189.863	184.08
190.082	305.57
190.302	246.49
190.521	207.41
190.74	203.59
190.959	104.71
191.178	135.65
191.398	95.01
191.617	157.63
191.836	151.54
192.055	187.9
192.274	247.5
192.494	166.64
192.713	159.75
192.932	171.05
193.151	226.57
193.37	239.63
193.589	279.77
193.808	341.92
194.027	244.25
194.246	233.5
194.465	194.44
194.685	147.66
194.904	168.34
195.123	432.37
195.342	363.36
195.561	509.96
195.78	1568.38
195.999	503.17
196.218	873.61
196.436	2105.1
196.655	-2176.81
196.874	-9057.07
197.093	-1651.57
197.312	-1032.46
197.531	1021.94
197.75	880.56
197.969	394.26
198.188	343.93
198.407	245.38
198.625	217.68
198.844	189.78
199.063	156.84
199.282	171.04
199.501	194.4
199.719	218.2
199.938	191.96
200.157	204.22
200.376	167.22
200.594	154.61
200.813	204.61
201.032	221.46
201.251	265.66
201.469	295.65
201.688	429.19
201.907	346.87
202.125	250.09
202.344	366.27
202.563	275.17
202.781	530.97
203	419.21
203.218	423.69
203.437	328.41
203.656	325.43
203.874	325.75
204.093	239.71
204.311	217.64
204.53	241.09
204.748	198.47
204.967	298.85
205.185	269.2
205.404	2014.67
205.622	-1865.2
205.841	13353.49
206.059	-362.95
206.278	1496.04
206.496	-266.8
206.715	-135.09
206.933	-146.93
207.151	-654.41
207.37	-750.58
207.588	628.18
207.806	286.32
208.025	375.02
208.243	293.66
208.461	193.59
208.68	175.33
208.898	189.46
209.116	165.32
209.335	180.49
209.553	181.17
209.771	148.3
209.989	163.75
210.208	173.36
210.426	170.87
210.644	170.64
210.862	148.94
211.081	163.97
211.299	119.49
211.517	131.48
211.735	136.71
211.953	136.25
212.171	189.13
212.39	172.62
212.608	193.83
212.826	190.64
213.044	197.55
213.262	562.16
213.48	428.61
213.698	3229.19
213.916	-920.82
214.134	-885.02
214.352	-947.08
214.57	1479.12
214.788	-982.86
215.006	-612.06
215.224	625.49
215.442	395.62
215.66	227.58
215.878	403.86
216.096	266.53
216.314	279.52
216.532	263.5
216.75	270.69
216.968	252.24
217.185	242.26
217.403	231.59
217.621	281.99
217.839	381.12
218.057	254.7
218.275	191.81
218.492	172
218.71	147.44
218.928	155.45
219.146	160.86
219.363	202.7
219.581	197.44
219.799	227.1
220.017	371.06
220.234	387.43
220.452	890.35
220.67	-2034.71
220.887	-625.06
221.105	-431.14
221.323	-525.55
221.54	-240.17
221.758	-453.54
221.976	-842.08
222.193	-1845.13
222.411	986.08
222.629	995.91
222.846	3632.81
223.064	3400.74
223.281	1573.31
223.499	1531.85
223.716	-945.18
223.934	4371.84
224.151	-1106.16
224.369	-363.89
224.586	-266.82
224.804	-240.25
225.021	-337.8
225.239	-350.55
225.456	-544.32
225.674	-451.01
225.891	-383.52
226.108	6038.21
226.326	-11323.02
226.543	16831.71
226.76	-1443.21
226.978	-2870.58
227.195	-706.63
227.413	-452.49
227.63	-274.75
227.847	-123.05
228.064	-77.79
228.282	-57.17
228.499	-40.86
228.716	-27.69
228.934	-32.44
229.151	-29.99
229.368	-24.82
229.585	-22.6
229.802	-21.06
230.02	-23.05
230.237	-28.51
230.454	-30.11
230.671	-35.56
230.888	-39.01
231.105	-40.42
231.323	-40.37
231.54	-45.76
231.757	-38.91
231.974	-42.07
232.191	-53.88
232.408	-52.16
232.625	-51.46
232.842	-61.12
233.059	-47.49
233.276	-48.03
233.493	-54.69
233.71	-58.64
233.927	-55.7
234.144	-58.05
234.361	-58.75
234.578	-43.32
234.795	-43.51
235.012	-48.02
235.229	-53.06
235.446	-64.82
235.663	-66.9
235.879	-80.68
236.096	-85.66
236.313	-91.92
236.53	-115.02
236.747	-113.9
236.964	-145.91
237.181	-142.47
237.397	-119.59
237.614	-103.67
237.831	-117.15
238.048	-121.91
238.264	-99.45
238.481	-70.65
238.698	-60.96
238.915	-54.46
239.131	-60.29
239.348	-48.08
239.565	-44.86
239.781	-36.09
239.998	-41.63
240.215	-32.68
240.431	-28.81
240.648	-25.05
240.865	-27.94
241.081	-23.85
241.298	-16.67
241.514	-12.67
241.731	-11.52
241.947	-12.51
242.164	-11.48
242.38	-8.64
242.597	-6.69
242.814	-5.13
243.03	-3.68
243.246	-2.26
243.463	-0.65
243.679	-1.46
243.896	-3.32
244.112	-6.67
244.329	-5.57
244.545	-7.9
244.762	-9.17
244.978	-9.35
245.194	-8.97
245.411	-8.89
245.627	-10.92
245.843	-11.65
246.06	-10.31
246.276	-6.67
246.492	-3.36
246.709	-1.96
246.925	-1.35
247.141	-1.81
247.357	-2.33
247.574	-1.62
247.79	-3.11
248.006	-3.12
248.222	-4.01
248.439	-5.63
248.655	-6.62
248.871	-6.62
249.087	-7.35
249.303	-8.54
249.519	-7.52
249.736	-9.22
249.952	-12.49
250.168	-10.37
250.384	-9.59
250.6	-7.45
250.816	-6.71
251.032	-9.28
251.248	-13.5
251.464	-14.41
251.68	-14.27
251.896	-16.65
252.112	-14.62
252.328	-11.3
252.544	-14.43
252.76	-16.35
252.976	-17.25
253.192	-15.94
253.408	-16.55
253.624	-14.58
253.84	-17.09
254.056	-18.73
254.272	-16.99
254.487	-20.49
254.703	-21.25
254.919	-17.5
255.135	-18.8
255.351	-17.92
255.567	-21.43
255.782	-18.88
255.998	-24.53
256.214	-21.43
256.43	-21.05
256.646	-21.9
256.861	-16.51
257.077	-18.46
257.293	-21.43
257.508	-19.34
257.724	-16.99
257.94	-13.96
258.155	-12.28
258.371	-10.78
258.587	-7.9
258.802	-6.96
259.018	-4.27
259.234	-3.81
259.449	-2.58
259.665	-1.26
259.88	-0.18
260.096	-0.87
260.312	-1.23
260.527	-1.34
260.743	0.07
260.958	-0.9
261.174	-0.47
261.389	-1.5
261.605	-2.01
261.82	-2
262.036	-2.87
262.251	-3.7
262.466	-3.5
262.682	-4.02
262.897	-4.28
263.113	-6.84
263.328	-8.09
263.543	-8.28
263.759	-6.79
263.974	-10.06
264.189	-11.63
264.405	-13.13
264.62	-11.75
264.835	-14.86
265.051	-13.19
265.266	-11.71
265.481	-10.35
265.696	-9.03
265.912	-8.02
266.127	-5.45
266.342	-4.54
266.557	-5.32
266.773	-5.83
266.988	-7.96
267.203	-7.49
267.418	-8.48
267.633	-8.49
267.848	-7.93
268.064	-8.02
268.279	-7.56
268.494	-12.13
268.709	-11.49
268.924	-10.25
269.139	-6.69
269.354	-6.31
269.569	-8.06
269.784	-9.08
269.999	-11.2
270.214	-10.16
270.429	-10.48
270.644	-11.53
270.859	-8.56
271.074	-7.45
271.289	-6.97
271.504	-6.11
271.719	-4.85
271.934	-1.22
272.149	-0.84
272.363	-0.42
272.578	-0.15
272.793	1.17
273.008	2.33
273.223	0.8
273.438	-2.12
273.653	-4.21
273.867	-6.42
274.082	-9.52
274.297	-13.06
274.512	-13.01
274.726	-13.78
274.941	-16.34
275.156	-17.06
275.371	-19.71
275.585	-15.97
275.8	-12.99
276.015	-11.63
276.229	-9.83
276.444	-6.09
276.659	-3.96
276.873	-1.47
277.088	-2.41
277.302	-1.45
277.517	-2.38
277.732	-0.32
277.946	-5.3
278.161	-6.9
278.375	-7.5
278.59	-10.45
278.804	-12.85
279.019	-16.1
279.233	-19.58
279.448	-17.36
279.662	-15.92
279.877	-18.27
280.091	-21.05
280.306	-19.09
280.52	-21.08
280.735	-18.02
280.949	-14.87
281.163	-13.15
281.378	-11.98
281.592	-11.76
281.806	-10.66
282.021	-10.57
282.235	-7.76
282.449	-6.93
282.664	-8.19
282.878	-4.98
283.092	-5.23
283.307	-7.12
283.521	-6.46
283.735	-4.42
283.949	-5
284.164	-5.68
284.378	-4.93
284.592	-5.26
284.806	-6.13
285.02	-4.37
285.234	-3.74
285.449	-3.94
285.663	-2.81
285.877	-3.43
286.091	-4.72
286.305	-3
286.519	-2.24
286.733	-3.88
286.947	-3.78
287.161	-2.28
287.375	-3.16
287.589	-4.08
287.803	-6.24
288.017	-6.89
288.231	-10.68
288.445	-10.34
288.659	-12.03
288.873	-11.95
289.087	-10.47
289.301	-10.2
289.515	-8.61
289.729	-10.38
289.943	-7.12
290.157	-5.71
290.371	-4.3
290.584	-0.08
290.798	1.21
291.012	2.07
291.226	1.14
291.44	0.18
291.654	0.73
291.867	-2.12
292.081	-1.06
292.295	-1.73
292.509	-1.55
292.722	-3.89
292.936	-5.05
293.15	-6.84
293.364	-7.43
293.577	-5.93
293.791	-6.49
294.005	-6.42
294.218	-4.34
294.432	-1.98
294.645	-5.47
294.859	-7.46
295.073	-7
295.286	-6.91
295.5	-7.91
295.713	-6.26
295.927	-7.87
296.14	-6.14
296.354	-7.36
296.568	-7.83
296.781	-7.39
296.994	-4.8
297.208	-1.51
297.421	-0.67
297.635	-0.63
297.848	1.11
298.062	0.38
298.275	1.03
298.489	1.15
298.702	2.77
298.915	4.6
299.129	4.85
299.342	4.37
299.555	2.23
299.769	3.21
299.982	4.27
300.195	2.81
300.409	4.39
300.622	3.37
300.835	2.02
301.048	1.16
301.262	0.15
301.475	-0.73
301.688	0.7
301.901	2.03
302.115	-0.16
302.328	-2.57
302.541	-1.26
302.754	-6.13
302.967	-4.2
303.18	-1.49
303.393	-2.37
303.607	-4.5
303.82	-3.43
304.033	-3.22
304.246	-2.71
304.459	-2.12
304.672	-0.43
304.885	-0.57
305.098	1.67
305.311	-2.08
305.524	-2.09
305.737	-0.09
305.95	0.09
306.163	-0.85
306.376	-1.4
306.589	-3.52
306.802	-2.03
307.015	-1.69
307.228	-2.4
307.44	-1.87
307.653	3.5
307.866	1.49
308.079	0.11
308.292	0.66
308.505	-0.57
308.718	-3.28
308.93	-2.95
309.143	-2.07
309.356	-1.11
309.569	-0.11
309.781	1.52
309.994	1
310.207	0.15
310.42	0.79
310.632	2.05
310.845	1.73
311.058	3.06
311.27	2.98
311.483	1.69
311.696	0.66
311.908	-0.12
312.121	-2.02
312.333	-2.16
312.546	-1.4
312.759	-3.47
312.971	-4.25
313.184	-2.18
313.396	-3.11
313.609	-0.5
313.821	-0.28
314.034	-1.71
314.246	0.33
314.459	0.84
314.671	0.29
314.884	1.25
315.096	4.29
315.309	7.57
315.521	7.03
315.733	7.35
315.946	5.35
316.158	5.33
316.371	9.09
316.583	10.11
316.795	9.87
317.008	9.45
317.22	8.93
317.432	6.92
317.644	4.93
317.857	6.08
318.069	8.98
318.281	9.79
318.494	10.53
318.706	9.73
318.918	5.75
319.13	6.85
319.342	6.94
319.555	6.35
319.767	6.84
319.979	4.34
320.191	4.13
320.403	1.77
320.615	1.47
320.827	1.86
321.039	-1.03
321.252	-1.43
321.464	-0.49
321.676	-1.51
321.888	-0.75
322.1	-2.25
322.312	-0.74
322.524	-2.29
322.736	-2.67
322.948	-3.34
323.16	-3.04
323.372	0.76
323.584	2.52
323.796	2.11
324.007	3.04
324.219	1.68
324.431	2.76
324.643	2.63
324.855	3.67
325.067	5.21
325.279	6.61
325.491	6.33
325.702	7.25
325.914	9.01
326.126	10.97
326.338	12.09
326.55	15.44
326.761	17.27
326.973	18.79
327.185	19.83
327.396	19.69
327.608	19.72
327.82	21.67
328.032	19.09
328.243	19.24
328.455	19.83
328.666	21.74
328.878	21.37
329.09	20.34
329.301	21.2
329.513	21.98
329.725	23.04
329.936	24.56
330.148	24.15
330.359	27.36
330.571	26.57
330.782	25.56
330.994	25.24
331.205	27.22
331.417	29.56
331.628	30.34
331.84	31.69
332.051	35
332.262	35.2
332.474	35.65
332.685	37.33
332.897	41.15
333.108	43.39
333.319	43.85
333.531	44.52
333.742	45.92
333.953	47.14
334.165	49.84
334.376	50.2
334.587	51.04
334.799	51.13
335.01	48.8
335.221	47.67
335.432	47.95
335.644	48.23
335.855	48.61
336.066	49.85
336.277	51.67
336.488	50.74
336.7	49.87
336.911	50.15
337.122	52.85
337.333	55.18
337.544	54.49
337.755	54.99
337.966	56.13
338.177	56.96
338.388	57
338.599	55.51
338.811	56.75
339.022	56.75
339.233	57.85
339.444	57.88
339.655	57.96
339.866	60.15
340.076	59.37
340.287	60.27
340.498	60.43
340.709	59.9
340.92	60.31
341.131	58.67
341.342	58.89
341.553	57.27
341.764	55.75
341.975	56.24
342.185	56.65
342.396	57.79
342.607	56.98
342.818	55.31
343.029	55.05
343.239	56.5
343.45	57.83
343.661	58.45
343.872	60.49
344.082	61.76
344.293	61.78
344.504	62.68
344.714	61.69
344.925	62.23
345.136	62.76
345.346	62.53
345.557	61.83
345.768	62.11
345.978	63.25
346.189	62.9
346.399	63.08
346.61	61.65
346.821	59.86
347.031	60.4
347.242	60.08
347.452	60.75
347.663	62.62
347.873	62.23
348.084	62.01
348.294	62.29
348.504	61.91
348.715	62.78
348.925	64.27
349.136	67.24
349.346	67.94
349.557	67.66
349.767	68.09
349.977	66.26
350.188	68
350.398	67.39
350.608	67.58
350.819	68.78
351.029	66.99
351.239	67
351.449	66.2
351.66	67.7
351.87	67.84
352.08	68.93
352.29	69.98
352.501	67.27
352.711	68.16
352.921	66.14
353.131	66.07
353.341	67.75
353.552	68.32
353.762	67.92
353.972	66.82
354.182	66.93
354.392	64.16
354.602	63.09
354.812	65.77
355.022	65.62
355.232	66.45
355.442	65.96
355.652	66.27
355.862	66.27
356.072	66.37
356.282	66.84
356.492	68.5
356.702	70.51
356.912	70.5
357.122	68.5
357.332	69.24
357.542	68.86
357.752	69.85
357.962	69.06
358.171	69.13
358.381	69.16
358.591	68.25
358.801	67.12
359.011	65.36
359.221	65.99
359.43	66.41
359.64	65.21
359.85	67.2
360.06	66.9
360.269	67.54
360.479	66.38
360.689	65.83
360.899	65.51
361.108	64.88
361.318	65.07
361.528	64.87
361.737	64.92
361.947	65.55
362.156	63.59
362.366	62.11
362.576	60.8
362.785	61.39
362.995	61.25
363.204	61.06
363.414	61.24
363.623	61.86
363.833	61.55
364.042	62.37
364.252	61.89
364.461	62.92
364.671	63.43
364.88	63.8
365.09	63.48
365.299	62.82
365.509	63.19
365.718	62.91
365.927	62.04
366.137	61.69
366.346	60.36
366.555	59.66
366.765	58.96
366.974	58.15
367.183	57.51
367.393	57.2
367.602	57.97
367.811	57.22
368.021	56.92
368.23	56.7
368.439	57.56
368.648	57.52
368.857	57.65
369.067	57.41
369.276	58.64
369.485	59.22
369.694	58.77
369.903	58.41
370.112	58.93
370.321	58.2
370.531	58.82
370.74	58.4
370.949	57.96
371.158	56.83
371.367	56.98
371.576	56.63
371.785	56.34
371.994	55.57
372.203	54.86
372.412	54.07
372.621	54.24
372.83	54.2
373.039	53.99
373.248	53.49
373.457	54.45
373.666	53.88
373.874	53.09
374.083	52.32
374.292	52.58
374.501	52.42
374.71	52.54
374.919	52.75
375.128	52.18
375.336	51.15
375.545	51.35
375.754	51.04
375.963	50.91
376.171	50.84
376.38	50.6
376.589	50.29
376.798	50.62
377.006	49.79
377.215	49.13
377.424	49.12
377.632	49.01
377.841	48.45
378.05	47.34
378.258	47.31
378.467	47.2
378.675	46.6
378.884	46.78
379.093	46.81
379.301	47.31
379.51	47.49
379.718	47.04
379.927	47
380.135	47.94
380.344	48.36
380.552	47.77
380.761	47.38
380.969	46.88
381.177	46.49
381.386	45.64
381.594	44.73
381.803	43.59
382.011	43.22
382.219	42.76
382.428	41.59
382.636	41.09
382.845	40.91
383.053	40.66
383.261	41.27
383.469	41.34
383.678	41.11
383.886	41.08
384.094	41.33
384.302	40.58
384.511	41.06
384.719	40.77
384.927	41
385.135	40.87
385.343	40.29
385.552	39.78
385.76	38.92
385.968	38.32
386.176	37.73
386.384	37.52
386.592	38.06
386.8	37.5
387.008	37.95
387.216	37.16
387.424	36.99
387.633	36.85
387.841	36.67
388.049	36.64
388.257	36.64
388.465	36.55
388.672	36.25
388.88	35.46
389.088	34.97
389.296	33.96
389.504	33.94
389.712	33.65
389.92	33.46
390.128	33.65
390.336	33.5
390.544	33.37
390.751	33.48
390.959	33.22
391.167	33.1
391.375	33.19
391.583	33.46
391.79	33.14
391.998	33.05
392.206	33.47
392.414	32.89
392.621	33.12
392.829	33.29
393.037	32.65
393.244	32.54
393.452	32.93
393.66	32.74
393.867	32.42
394.075	32.43
394.283	32.43
394.49	31.87
394.698	32.03
394.905	31.62
395.113	31.5
395.32	31.63
395.528	31.59
395.735	31.26
395.943	31.08
396.15	31.06
396.358	31.16
396.565	31.42
396.773	31.14
396.98	31.2
397.188	31.15
397.395	30.4
397.602	30.6
397.81	30.6
398.017	30.53
398.225	30.51
398.432	30.29
398.639	30
398.847	29.38
399.054	29.85
399.261	29.81
399.468	29.86
399.676	30.63
399.883	30.9
400.09	31.02
400.297	31.07
400.505	30.91
400.712	31.18
400.919	31
401.126	31.01
401.333	31.16
401.54	30.97
401.748	30.88
401.955	30.11
402.162	29.97
402.369	29.96
402.576	29.98
402.783	30.25
402.99	30.31
403.197	30.18
403.404	30.28
403.611	30
403.818	30.03
404.025	29.66
404.232	29.85
404.439	29.62
404.646	29.43
404.853	29.44
405.06	29.3
405.267	29.29
405.474	29.78
405.681	29.68
405.887	29.69
406.094	29.67
406.301	29.88
406.508	30.15
406.715	29.98
406.922	29.68
407.128	29.67
407.335	29.55
407.542	29.39
407.749	29.01
407.955	28.91
408.162	28.76
408.369	28.92
408.575	28.93
408.782	28.74
408.989	28.94
409.195	29.44
409.402	28.99
409.609	29.12
409.815	29.2
410.022	29.26
410.228	29.69
410.435	29.75
410.642	29.47
410.848	29.33
411.055	29.04
411.261	29.02
411.468	28.81
411.674	29.06
411.881	28.81
412.087	28.52
412.294	28.36
412.5	27.96
412.706	27.85
412.913	27.95
413.119	28.16
413.326	28.37
413.532	28.14
413.738	27.96
413.945	28.23
414.151	28.32
414.357	28.24
414.564	28.46
414.77	28.42
414.976	28.67
415.182	28.63
415.389	28.44
415.595	28.25
415.801	28.33
416.007	28.56
416.214	28.34
416.42	28.08
416.626	28.1
416.832	28.16
417.038	28.15
417.244	27.85
417.45	27.81
417.657	27.88
417.863	28.06
418.069	28.19
418.275	28.21
418.481	28.31
418.687	28.43
418.893	28.42
419.099	28.45
419.305	28.43
419.511	28.47
419.717	28.47
419.923	28.4
420.129	28.35
420.335	28.35
420.541	28.26
420.746	28.07
420.952	28.2
421.158	28.3
421.364	28.29
421.57	28.25
421.776	28.24
421.982	28.24
422.187	28.17
422.393	28.09
422.599	27.89
422.805	28.04
423.01	27.99
423.216	27.89
423.422	27.93
423.628	27.69
423.833	27.76
424.039	27.75
424.245	27.8
424.45	27.66
424.656	27.76
424.862	27.91
425.067	27.72
425.273	27.7
425.478	27.66
425.684	27.49
425.889	27.36
426.095	27.21
426.301	27.38
426.506	27.28
426.712	27.46
426.917	27.44
427.123	27.25
427.328	27.39
427.533	27.34
427.739	27.2
427.944	27.21
428.15	27.44
428.355	27.35
428.561	27.15
428.766	26.96
428.971	26.89
429.177	26.56
429.382	26.7
429.587	26.13
429.793	26.31
429.998	26.36
430.203	26.26
430.408	26.11
430.614	26.28
430.819	26.27
431.024	26.21
431.229	26.22
431.434	26.36
431.64	26.33
431.845	26.79
432.05	26.61
432.255	26.6
432.46	26.45
432.665	26.62
432.87	26.47
433.076	26.32
433.281	26.52
433.486	26.73
433.691	26.8
433.896	26.82
434.101	26.59
434.306	26.65
434.511	26.7
434.716	26.82
434.921	26.71
435.126	26.74
435.331	26.82
435.535	26.73
435.74	26.48
435.945	26.42
436.15	26.31
436.355	26.4
436.56	26.4
436.765	26.58
436.97	26.74
437.174	26.56
437.379	26.51
437.584	26.48
437.789	26.57
437.993	26.59
438.198	26.63
438.403	26.8
438.608	26.84
438.812	26.84
439.017	26.72
439.222	26.59
439.426	26.63
439.631	26.76
439.836	26.78
440.04	26.8
440.245	26.94
440.45	26.94
440.654	27
440.859	26.91
441.063	26.91
441.268	26.94
441.472	27
441.677	27.12
441.881	27.08
442.086	27.05
442.29	26.95
442.495	26.9
442.699	26.77
442.904	26.71
443.108	26.69
443.312	26.68
443.517	26.49
443.721	26.58
443.925	26.6
444.13	26.5
444.334	26.36
444.538	26.38
444.743	26.44
444.947	26.65
445.151	26.63
445.356	26.68
445.56	26.73
445.764	26.72
445.968	26.69
446.173	26.77
446.377	26.9
446.581	26.92
446.785	26.95
446.989	26.89
447.193	26.8
447.398	26.61
447.602	26.67
447.806	26.7
448.01	26.74
448.214	26.67
448.418	26.5
448.622	26.57
448.826	26.72
449.03	26.59
449.234	26.55
449.438	26.53
449.642	26.57
449.846	26.32
450.05	26.19
450.254	26.36
450.458	26.23
450.662	26.16
450.866	25.94
451.069	25.92
451.273	25.9
451.477	25.84
451.681	25.8
451.885	25.92
452.089	26.22
452.292	26.22
452.496	26.05
452.7	26.1
452.904	26.4
453.107	26.38
453.311	26.27
453.515	26.24
453.719	26.15
453.922	26.31
454.126	26.26
454.33	26.28
454.533	26.1
454.737	26
454.94	26
455.144	25.73
455.348	25.71
455.551	25.67
455.755	25.72
455.958	25.79
456.162	25.61
456.365	25.46
456.569	25.15
456.772	25.16
456.976	25.4
457.179	25.57
457.383	25.65
457.586	25.63
457.79	25.69
457.993	25.58
458.196	25.47
458.4	25.47
458.603	25.72
458.807	25.96
459.01	26.03
459.213	25.96
459.417	26
459.62	26.04
459.823	26.14
460.026	26.05
460.23	26.03
460.433	26.14
460.636	26.2
460.839	26.11
461.042	25.86
461.246	25.77
461.449	25.71
461.652	25.6
461.855	25.61
462.058	25.56
462.261	25.59
462.464	25.79
462.668	25.77
462.871	25.73
463.074	25.74
463.277	25.94
463.48	26.24
463.683	26.5
463.886	26.51
464.089	26.58
464.292	26.69
464.495	26.78
464.698	26.84
464.901	26.93
465.104	26.82
465.306	26.6
465.509	26.55
465.712	26.56
465.915	26.59
466.118	26.54
466.321	26.45
466.524	26.25
466.726	26.37
466.929	26.23
467.132	26.17
467.335	26.32
467.538	26.32
467.74	26.37
467.943	26.19
468.146	25.98
468.348	25.92
468.551	25.82
468.754	25.91
468.956	25.79
469.159	25.88
469.362	25.73
469.564	25.83
469.767	25.97
469.969	26.21
470.172	26.29
470.375	26.36
470.577	26.69
470.78	26.79
470.982	26.76
471.185	26.73
471.387	26.79
471.59	27.09
471.792	27.06
471.995	27.36
472.197	27.15
472.399	27.21
472.602	27.33
472.804	27.33
473.007	27.45
473.209	27.61
473.411	27.58
473.614	27.36
473.816	27.2
474.018	27.33
474.22	27.17
474.423	27.09
474.625	27.05
474.827	27.02
475.03	26.92
475.232	26.91
475.434	26.64
475.636	26.78
475.838	26.87
476.04	26.95
476.243	27.01
476.445	26.88
476.647	27.01
476.849	26.86
477.051	26.76
477.253	26.62
477.455	26.6
477.657	26.79
477.859	26.89
478.061	27
478.263	27.06
478.465	26.79
478.667	27.03
478.869	26.93
479.071	27.12
479.273	27.07
479.475	27.15
479.677	27
479.879	26.89
480.081	26.79
480.283	26.81
480.485	26.86
480.686	26.8
480.888	26.54
481.09	26.61
481.292	26.6
481.494	26.72
481.695	26.82
481.897	26.89
482.099	26.96
482.301	26.99
482.502	27.03
482.704	27
482.906	27.17
483.107	27.28
483.309	27.3
483.511	27.34
483.712	27.32
483.914	27.28
484.115	27.28
484.317	27.31
484.519	27.3
484.72	27.28
484.922	27.29
485.123	27.25
485.325	27.22
485.526	27.24
485.728	27.19
485.929	27.21
486.131	27.18
486.332	27.23
486.534	27.26
486.735	27.26
486.936	27.2
487.138	27.21
487.339	27.2
487.541	27.22
487.742	27.27
487.943	27.25
488.144	27.26
488.346	27.32
488.547	27.36
488.748	27.33
488.95	27.3
489.151	27.34
489.352	27.3
489.553	27.33
489.755	27.28
489.956	27.25
490.157	27.37
490.358	27.33
490.559	27.27
490.76	27.17
490.961	27.18
491.163	27.25
491.364	27.33
491.565	27.44
491.766	27.51
491.967	27.65
492.168	27.66
492.369	27.72
492.57	27.73
492.771	27.76
492.972	27.73
493.173	27.65
493.374	27.69
493.575	27.68
493.776	27.6
493.976	27.56
494.177	27.36
494.378	27.23
494.579	27.09
494.78	27.18
494.981	27.19
495.182	27.43
495.382	27.71
495.583	27.7
495.784	27.78
495.985	27.87
496.185	27.99
496.386	28.23
496.587	28.26
496.788	28.19
496.988	28.27
497.189	28.34
497.39	28.34
497.59	28.42
497.791	28.58
497.992	28.58
498.192	28.65
498.393	28.52
498.593	28.39
498.794	28.45
498.994	28.52
499.195	28.37
499.395	28.39
499.596	28.4
499.796	28.21
499.997	28.19
500.197	28.25
500.398	28.31
500.598	28.39
500.799	28.46
500.999	28.59
501.199	28.72
501.4	28.9
501.6	28.98
501.801	29.09
502.001	29.32
502.201	29.33
502.402	29.34
502.602	29.32
502.802	29.43
503.002	29.56
503.203	29.49
503.403	29.64
503.603	29.65
503.803	29.82
504.003	29.81
504.204	29.97
504.404	30.15
504.604	30.35
504.804	30.42
505.004	30.5
505.204	30.67
505.404	30.88
505.604	30.86
505.804	30.98
506.005	30.94
506.205	31.1
506.405	31.01
506.605	30.87
506.805	30.99
507.005	31.02
507.204	30.99
507.404	30.87
507.604	30.96
507.804	31.06
508.004	31.26
508.204	31.42
508.404	31.61
508.604	31.72
508.804	31.98
509.003	32.11
509.203	32.34
509.403	32.44
509.603	32.75
509.803	32.74
510.002	32.82
510.202	32.79
510.402	32.8
510.602	32.84
510.801	32.93
511.001	32.96
511.201	33.01
511.4	33.07
511.6	33.28
511.8	33.36
511.999	33.58
512.199	33.79
512.398	33.94
512.598	34.11
512.797	34.18
512.997	34.32
513.197	34.51
513.396	34.54
513.596	34.43
513.795	34.47
513.994	34.34
514.194	34.35
514.393	34.47
514.593	34.61
514.792	34.63
514.992	34.76
515.191	34.76
515.39	34.86
515.59	34.99
515.789	35.3
515.988	35.64
516.188	35.75
516.387	35.92
516.586	36.06
516.786	36.22
516.985	36.35
517.184	36.41
517.383	36.58
517.582	36.51
517.782	36.6
517.981	36.66
518.18	36.55
518.379	36.88
518.578	36.99
518.777	36.99
518.976	36.99
519.176	37.17
519.375	37.31
519.574	37.36
519.773	37.49
519.972	37.61
520.171	37.71
520.37	37.81
520.569	37.82
520.768	37.84
520.967	37.99
521.166	38.1
521.365	38.18
521.564	38.3
521.762	38.47
521.961	38.66
522.16	38.83
522.359	39
522.558	39.27
522.757	39.35
522.956	39.47
523.154	39.52
523.353	39.73
523.552	39.73
523.751	39.77
523.949	39.88
524.148	40.02
524.347	40.08
524.546	40.25
524.744	40.28
524.943	40.5
525.142	40.66
525.34	40.92
525.539	40.91
525.737	41
525.936	41.11
526.135	41.22
526.333	41.17
526.532	41.14
526.73	41.16
526.929	41.23
527.127	41.34
527.326	41.49
527.524	41.5
527.723	41.68
527.921	41.81
528.12	41.87
528.318	41.85
528.516	41.96
528.715	42.07
528.913	42.15
529.112	42.23
529.31	42.25
529.508	42.25
529.707	42.23
529.905	42.23
530.103	42.38
530.301	42.49
530.5	42.65
530.698	42.76
530.896	42.85
531.094	42.89
531.293	42.9
531.491	42.91
531.689	42.93
531.887	43.02
532.085	43.08
532.283	42.99
532.481	42.95
532.68	42.97
532.878	43.06
533.076	43.25
533.274	43.42
533.472	43.52
533.67	43.6
533.868	43.67
534.066	43.87
534.264	43.83
534.462	43.89
534.66	44.01
534.858	44.07
535.056	44.06
535.253	44.03
535.451	43.89
535.649	43.94
535.847	44.02
536.045	44.14
536.243	44.17
536.441	44.28
536.638	44.18
536.836	44.09
537.034	44.2
537.232	44.21
537.43	44.13
537.627	44.2
537.825	43.99
538.023	43.83
538.22	43.87
538.418	43.7
538.616	43.69
538.813	43.77
539.011	43.9
539.209	43.87
539.406	43.99
539.604	44.11
539.801	44.15
539.999	44.42
540.196	44.6
540.394	44.56
540.591	44.64
540.789	44.74
540.986	44.85
541.184	44.9
541.381	44.97
541.579	44.95
541.776	44.93
541.974	44.94
542.171	45
542.368	45.09
542.566	45.19
542.763	45.31
542.96	45.36
543.158	45.42
543.355	45.42
543.552	45.38
543.75	45.41
543.947	45.47
544.144	45.45
544.341	45.45
544.539	45.37
544.736	45.33
544.933	45.33
545.13	45.4
545.327	45.29
545.524	45.35
545.722	45.38
545.919	45.64
546.116	45.59
546.313	45.63
546.51	45.65
546.707	45.71
546.904	45.76
547.101	45.87
547.298	45.72
547.495	45.86
547.692	45.8
547.889	45.78
548.086	45.59
548.283	45.62
548.48	45.77
548.677	45.78
548.874	45.77
549.07	45.68
549.267	45.43
549.464	45.56
549.661	45.42
549.858	45.53
550.055	45.66
550.251	45.83
550.448	45.85
550.645	45.8
550.842	46.12
551.038	46.05
551.235	46.38
551.432	46.38
551.628	46.46
551.825	46.41
552.022	46.35
552.218	46.24
552.415	46.2
552.612	46.18
552.808	46.24
553.005	45.91
553.201	46.02
553.398	45.75
553.594	45.92
553.791	45.99
553.987	46.1
554.184	46.15
554.38	46.31
554.577	46.38
554.773	46.55
554.97	46.58
555.166	46.94
555.362	47.1
555.559	47.15
555.755	46.89
555.952	46.93
556.148	47.16
556.344	47.27
556.541	47.09
556.737	46.96
556.933	46.86
557.129	47.03
557.326	46.72
557.522	46.55
557.718	46.44
557.914	46.77
558.11	46.45
558.307	46.3
558.503	46.25
558.699	46.49
558.895	46.46
559.091	46.67
559.287	46.64
559.483	46.57
559.679	46.49
559.876	46.65
560.072	46.65
560.268	46.82
560.464	46.88
560.66	46.96
560.856	47.17
561.052	47.23
561.247	47.02
561.443	46.9
561.639	47.1
561.835	47.17
562.031	47.19
562.227	47.31
562.423	47.52
562.619	47.66
562.815	47.64
563.01	47.51
563.206	47.58
563.402	47.52
563.598	47.64
563.793	47.53
563.989	47.55
564.185	47.77
564.381	47.73
564.576	47.55
564.772	47.73
564.968	47.83
565.163	47.91
565.359	47.99
565.555	48.36
565.75	48.6
565.946	48.86
566.141	48.95
566.337	49.05
566.532	48.93
566.728	49.02
566.923	48.79
567.119	48.71
567.314	48.57
567.51	48.59
567.705	48.55
567.901	48.1
568.096	47.88
568.292	47.75
568.487	47.78
568.682	47.63
568.878	47.69
569.073	47.61
569.268	47.72
569.464	47.83
569.659	47.79
569.854	47.7
570.05	48.04
570.245	48.26
570.44	48.37
570.635	48.28
570.831	48.62
571.026	48.36
571.221	48.54
571.416	48.54
571.611	48.57
571.806	48.59
572.002	48.61
572.197	48.48
572.392	48.45
572.587	48.42
572.782	48.3
572.977	48.18
573.172	48.31
573.367	48.45
573.562	48.17
573.757	48.08
573.952	48.19
574.147	48.17
574.342	48.24
574.537	48.1
574.732	48.3
574.927	48.33
575.121	48.45
575.316	48.62
575.511	48.43
575.706	48.65
575.901	48.86
576.096	48.83
576.29	48.76
576.485	49.14
576.68	49.19
576.875	49.24
577.069	49.43
577.264	49.37
577.459	49.29
577.654	49.28
577.848	49.4
578.043	49.4
578.238	49.53
578.432	49.64
578.627	49.16
578.821	49.19
579.016	49.01
579.21	48.92
579.405	48.98
579.6	48.94
579.794	49.35
579.989	49.39
580.183	49.15
580.378	49.14
580.572	49.22
580.766	49.09
580.961	49.4
581.155	49.61
581.35	49.44
581.544	49.44
581.738	49.38
581.933	48.9
582.127	48.81
582.321	48.69
582.516	48.44
582.71	48.67
582.904	48.91
583.099	48.64
583.293	48.6
583.487	48.57
583.681	48.49
583.875	48.63
584.07	48.62
584.264	48.79
584.458	48.74
584.652	49.08
584.846	48.91
585.04	49.07
585.234	49.01
585.428	48.73
585.623	48.94
585.817	49.22
586.011	49.36
586.205	49.7
586.399	49.52
586.593	49.95
586.787	49.82
586.981	49.79
587.174	49.92
587.368	50.01
587.562	50.22
587.756	50.23
587.95	50.11
588.144	49.69
588.338	49.57
588.532	49.9
588.725	49.76
588.919	49.89
589.113	50.31
589.307	50.14
589.501	50.26
589.694	50.22
589.888	50.31
590.082	50.05
590.275	50.35
590.469	50.49
590.663	50.07
590.856	50.29
591.05	50.14
591.244	49.83
591.437	49.74
591.631	49.59
591.824	49.4
592.018	49.44
592.212	49.91
592.405	49.84
592.599	49.73
592.792	49.79
592.986	49.72
593.179	49.64
593.372	49.72
593.566	49.59
593.759	49.84
593.953	50.27
594.146	50.34
594.339	49.96
594.533	50.39
594.726	50.47
594.92	50.81
595.113	50.68
595.306	50.64
595.499	50.7
595.693	50.9
595.886	50.83
596.079	50.69
596.272	50.43
596.466	50.36
596.659	50.32
596.852	50.32
597.045	50.34
597.238	50.58
597.431	50.72
597.624	50.74
597.818	50.77
598.011	50.9
598.204	50.79
598.397	51.03
598.59	51.35
598.783	51.03
598.976	51.23
599.169	51.14
599.362	50.92
599.555	51.09
599.748	50.88
599.941	50.53
600.134	50.77
600.326	50.81
600.519	50.77
600.712	50.66
600.905	50.78
601.098	50.47
601.291	50.25
601.483	50.36
601.676	50.27
601.869	50.39
602.062	50.81
602.255	50.6
602.447	50.89
602.64	50.93
602.833	51.07
603.025	51.23
603.218	51.36
603.411	51.73
603.603	51.79
603.796	52.08
603.989	52.02
604.181	52.17
604.374	52.02
604.566	51.93
604.759	52.24
604.951	52.12
605.144	52.08
605.336	52.11
605.529	52
605.721	51.95
605.914	51.62
606.106	51.94
606.299	51.95
606.491	52.23
606.683	52.37
606.876	52.14
607.068	52.3
607.26	52.34
607.453	52.33
607.645	52.46
607.837	52.73
608.03	52.75
608.222	52.53
608.414	52.56
608.606	52.52
608.799	52.48
608.991	52.45
609.183	52.19
609.375	52.23
609.567	52.19
609.759	52
609.952	51.88
610.144	52.06
610.336	52.07
610.528	51.79
610.72	51.63
610.912	51.56
611.104	51.42
611.296	51.53
611.488	51.38
611.68	51.31
611.872	51.22
612.064	50.97
612.256	50.58
612.448	50.78
612.64	50.76
612.832	50.33
613.023	50.47
613.215	50.36
613.407	50.61
613.599	50.64
613.791	50.61
613.983	50.65
614.174	50.67
614.366	51.01
614.558	51.13
614.75	51.16
614.941	51.54
615.133	51.28
615.325	51.55
615.516	51.55
615.708	51.8
615.9	52.29
616.091	52.24
616.283	52.34
616.475	51.92
616.666	51.53
616.858	52.15
617.049	51.95
617.241	51.89
617.432	51.78
617.624	51.27
617.815	51.25
618.007	50.97
618.198	51.32
618.39	51.4
618.581	51.62
618.773	51.58
618.964	51.01
619.155	51.19
619.347	51.34
619.538	51.25
619.729	51.56
619.921	51.47
620.112	51.36
620.303	51.08
620.494	50.95
620.686	50.91
620.877	51.1
621.068	51.54
621.259	51.66
621.451	51.72
621.642	51.74
621.833	52.05
622.024	52.15
622.215	52.28
622.406	52.35
622.597	52.5
622.788	52.77
622.98	52.66
623.171	52.3
623.362	52.33
623.553	52.33
623.744	52.47
623.935	52.24
624.126	52.27
624.317	52.13
624.508	51.98
624.698	51.72
624.889	51.63
625.08	51.71
625.271	51.76
625.462	51.88
625.653	51.74
625.844	51.74
626.034	51.81
626.225	51.81
626.416	52.05
626.607	52.33
626.798	52.5
626.988	52.72
627.179	52.4
627.37	52.61
627.56	52.74
627.751	52.99
627.942	53.22
628.132	53.19
628.323	53.23
628.514	53.16
628.704	53.12
628.895	53.37
629.085	53.48
629.276	53.59
629.466	53.27
629.657	53.05
629.847	53.07
630.038	52.74
630.228	52.6
630.419	52.32
630.609	52.54
630.8	52.54
630.99	51.99
631.181	51.53
631.371	51.67
631.561	51.9
631.752	51.95
631.942	51.61
632.132	51.64
632.323	52.11
632.513	52.58
632.703	52.18
632.893	52.22
633.084	52.64
633.274	52.59
633.464	52.35
633.654	51.92
633.844	51.68
634.034	51.86
634.225	51.72
634.415	51.39
634.605	50.93
634.795	51.17
634.985	51.35
635.175	51.11
635.365	51.15
635.555	51.29
635.745	51.49
635.935	51.52
636.125	51.24
636.315	51.53
636.505	51.93
636.695	51.96
636.885	51.37
637.075	51.13
637.265	51.02
637.455	51.03
637.644	50.77
637.834	50.65
638.024	50.78
638.214	50.98
638.404	50.91
638.593	50.59
638.783	51.06
638.973	51.46
639.163	51.29
639.352	51.75
639.542	52.49
639.732	52.98
639.921	52.77
640.111	52.69
640.301	52.42
640.49	52.12
640.68	52.03
640.87	51.49
641.059	51.53
641.249	51.51
641.438	51.16
641.628	50.75
641.817	50.55
642.007	51.05
642.196	51.02
642.386	51.41
642.575	51.5
642.764	51.26
642.954	51.37
643.143	51.41
643.333	51.74
643.522	51.67
643.711	51.42
643.901	51.5
644.09	51.84
644.279	52
644.469	51.97
644.658	52.02
644.847	52.09
645.036	52.37
645.226	52.14
645.415	52.43
645.604	52.78
645.793	52.65
645.982	52.58
646.171	51.85
646.361	51.82
646.55	52.15
646.739	52
646.928	51.73
647.117	51.66
647.306	52.1
647.495	51.38
647.684	51.07
647.873	51.09
648.062	51.74
648.251	51.85
648.44	52.14
648.629	51.74
648.818	52.22
649.007	52.51
649.196	52.26
649.384	52.1
649.573	51.85
649.762	51.78
649.951	52.27
650.14	51.81
650.328	51.94
650.517	51.57
650.706	51.47
650.895	51.06
651.083	51.52
651.272	51.58
651.461	50.94
651.65	51.39
651.838	51.28
652.027	50.71
652.216	50.6
652.404	50.29
652.593	50.6
652.781	50.64
652.97	50.5
653.158	50.1
653.347	50.15
653.535	50.57
653.724	50.46
653.912	50.61
654.101	50.75
654.289	50.74
654.478	51.44
654.666	50.74
654.855	50.66
655.043	50.69
655.231	50.76
655.42	50.99
655.608	50.67
655.796	50.84
655.985	51.12
656.173	51.35
656.361	51.52
656.55	50.94
656.738	51.58
656.926	51.72
657.114	51.8
657.302	51.65
657.491	51.18
657.679	51.55
657.867	51.39
658.055	51.4
658.243	51.19
658.431	51.07
658.619	51.43
658.807	51.08
658.996	51.38
659.184	51.56
659.372	51.79
659.56	51.79
659.748	51.53
659.936	51.57
660.124	51.93
660.311	51.71
660.499	51.34
660.687	51.2
660.875	51.37
661.063	50.83
661.251	50.56
661.439	50.66
661.627	50.89
661.814	51.52
662.002	51.5
662.19	51.2
662.378	51.82
662.565	51.96
662.753	51.68
662.941	51.27
663.129	51.72
663.316	52.21
663.504	52.16
663.692	52.33
663.879	52.1
664.067	52.27
664.254	51.81
664.442	51.37
664.63	51.43
664.817	51.35
665.005	52.04
665.192	52.12
665.38	52.12
665.567	51.81
665.755	50.75
665.942	50.47
666.13	50.43
666.317	50.55
666.504	50.49
666.692	50.35
666.879	51
667.067	50.64
667.254	50.36
667.441	50.31
667.629	50.55
667.816	51.66
668.003	51.83
668.19	52.06
668.378	51.84
668.565	51.59
668.752	52.22
668.939	52.18
669.127	51.82
669.314	51.55
669.501	51.12
669.688	51.02
669.875	50.84
670.062	50.56
670.249	50.21
670.436	50.55
670.623	50.76
670.81	50.72
670.997	50.08
671.184	50.41
671.371	51.04
671.558	51.32
671.745	51.23
671.932	50.91
672.119	50.7
672.306	50.71
672.493	50.57
672.68	50.35
672.867	50.2
673.054	51.1
673.24	51.01
673.427	50.59
673.614	50.99
673.801	51.46
673.988	51.6
674.174	52.83
674.361	52.85
674.548	52.64
674.734	53.09
674.921	53.36
675.108	53.09
675.294	53.12
675.481	53.14
675.668	52.21
675.854	51.35
676.041	50.81
676.227	50.01
676.414	49.93
676.601	50.23
676.787	50.23
676.974	49.4
677.16	49.16
677.347	49.9
677.533	49.87
677.719	49.98
677.906	49.89
678.092	51
678.279	51.05
678.465	51.2
678.651	51.05
678.838	51.55
679.024	51.87
679.21	52.37
679.397	52.22
679.583	52.37
679.769	52.9
679.955	53.49
680.142	53.3
680.328	53.86
680.514	53.61
680.7	53.48
680.886	52.99
681.073	53.22
681.259	52.67
681.445	51.99
681.631	51.85
681.817	51.97
682.003	51.75
682.189	51.58
682.375	50.59
682.561	50.87
682.747	51.04
682.933	51.03
683.119	50.7
683.305	50.96
683.491	51.56
683.677	51.43
683.863	51.14
684.049	51.02
684.235	50.73
684.42	51.26
684.606	51.08
684.792	51.46
684.978	51.62
685.164	51.75
685.349	51.6
685.535	51.65
685.721	51.71
685.907	51.78
686.092	52.28
686.278	52.4
686.464	52.78
686.649	53.13
686.835	52.49
687.021	52.67
687.206	52.69
687.392	53.35
687.577	52.97
687.763	53.49
687.948	53.42
688.134	52.55
688.319	52.79
688.505	52.61
688.69	51.9
688.876	52.29
689.061	52.05
689.247	51.72
689.432	51.02
689.618	50.62
689.803	49.91
689.988	49.71
690.174	50.09
690.359	49.51
690.544	49.22
690.73	49.71
690.915	49.14
691.1	48.68
691.285	48.95
691.471	49
691.656	49.35
691.841	49.97
692.026	50.49
692.211	50.3
692.396	50.67
692.582	50.34
692.767	50.25
692.952	50.88
693.137	51.21
693.322	50.83
693.507	50.6
693.692	50.44
693.877	49.64
694.062	48.77
694.247	49.07
694.432	48.42
694.617	48.41
694.802	48.78
694.987	48.42
695.172	48.99
695.357	48.89
695.541	48.52
695.726	49.07
695.911	49.16
696.096	49.37
696.281	49.32
696.466	50.05
696.65	50.27
696.835	49.97
697.02	50.1
697.204	49.88
697.389	50.28
697.574	50.96
697.759	50.33
697.943	50.83
698.128	50.99
698.312	51.02
698.497	51.1
698.682	51.12
698.866	51.13
699.051	51.69
699.235	51.41
699.42	51.28
699.604	50.73
699.789	51.18
699.973	51.21
700.158	50.94
700.342	50.98
700.527	50.78
700.711	50.56
700.895	50.5
701.08	49.26
701.264	49.38
701.448	49.14
701.633	49.59
701.817	49.21
702.001	48.86
702.186	48.89
702.37	48.66
702.554	48.72
702.738	48.89
702.923	49.04
703.107	48.61
703.291	48.25
703.475	49.54
703.659	49.24
703.843	49.69
704.027	49.71
704.212	50.29
704.396	50.22
704.58	49.43
704.764	49.41
704.948	48.77
705.132	49.35
705.316	49.65
705.5	48.32
705.684	49.34
705.868	49.26
706.052	49.1
706.235	49.12
706.419	49.6
706.603	50.14
706.787	50.46
706.971	51.11
707.155	51.73
707.339	52.13
707.522	52.62
707.706	52.25
707.89	51.62
708.074	51.14
708.257	50.29
708.441	49.71
708.625	49.86
708.808	49.27
708.992	48.87
709.176	48.67
709.359	47.34
709.543	47.4
709.727	47.63
709.91	47.53
710.094	48.22
710.277	48.79
710.461	48.32
710.644	47.61
710.828	47.85
711.011	47.56
711.195	47.94
711.378	49.04
711.562	48.81
711.745	48.83
711.928	49.14
712.112	49.22
712.295	48.65
712.478	49.05
712.662	49.18
712.845	49.24
713.028	49.93
713.212	49.5
713.395	48.82
713.578	48.36
713.761	47.18
713.945	46.83
714.128	46.69
714.311	46.97
714.494	46.91
714.677	47.79
714.86	48.14
715.043	47.61
715.227	47.28
715.41	47.57
715.593	48.57
715.776	48.97
715.959	48.84
716.142	48.81
716.325	49.04
716.508	49.89
716.691	48.7
716.874	48.74
717.057	49.42
717.239	50.04
717.422	49.88
717.605	49.19
717.788	48.76
717.971	49.94
718.154	50.17
718.337	50.96
718.519	51.04
718.702	52.34
718.885	52.64
719.068	52.48
719.25	52.19
719.433	52.37
719.616	52.32
719.798	52.84
719.981	50.82
720.164	50.15
720.346	48.82
720.529	48.37
720.712	47.72
720.894	46.67
721.077	46.31
721.259	46.84
721.442	45.89
721.624	46.09
721.807	46.09
721.989	47.3
722.172	47.39
722.354	47.44
722.537	46.27
722.719	46.12
722.901	45.92
723.084	46.1
723.266	46.25
723.448	47.55
723.631	47.03
723.813	47.45
723.995	47.26
724.178	47.35
724.36	47.49
724.542	48.5
724.724	48.85
724.907	49.77
725.089	49.49
725.271	48.81
725.453	48.61
725.635	48.17
725.817	47.59
725.999	47.63
726.181	48.17
726.364	48.29
726.546	47.09
726.728	46.98
726.91	46.78
727.092	46.39
727.274	46.04
727.456	46.46
727.638	47.28
727.819	46.92
728.001	46.69
728.183	46.03
728.365	46.32
728.547	47.04
728.729	47.01
728.911	46.8
729.093	47.7
729.274	47.97
729.456	47.82
729.638	47.49
729.82	47.57
730.001	48.13
730.183	47.55
730.365	46.98
730.546	46
730.728	46.18
730.91	46.03
731.091	44.98
731.273	44.96
731.455	44.69
731.636	44.92
731.818	45.13
731.999	45.74
732.181	46.12
732.362	45.47
732.544	47.36
732.725	47.33
732.907	47.86
733.088	48.72
733.27	47.92
733.451	48.11
733.633	48.4
733.814	48.27
733.995	47.51
734.177	47.87
734.358	48.35
734.539	48.05
734.721	47.59
734.902	45.53
735.083	44.93
735.264	45.72
735.446	45.6
735.627	45.34
735.808	45.56
735.989	45.84
736.17	44.93
736.351	43.49
736.533	42.84
736.714	42.56
736.895	43.73
737.076	44.68
737.257	44.72
737.438	44.21
737.619	43.84
737.8	44.12
737.981	44.77
738.162	45.7
738.343	47.25
738.524	45.84
738.705	46.52
738.886	45.89
739.067	46.29
739.247	46.98
739.428	46.41
739.609	46.19
739.79	45.92
739.971	45.43
740.151	45.34
740.332	45.01
740.513	46.11
740.694	45.79
740.874	46.69
741.055	44.87
741.236	44.74
741.417	45.79
741.597	45.75
741.778	45.55
741.958	44.95
742.139	44.99
742.32	46.13
742.5	47.62
742.681	47.55
742.861	47.11
743.042	47.64
743.222	45.88
743.403	45.68
743.583	46.7
743.764	46.37
743.944	45.97
744.124	44.59
744.305	43.85
744.485	42.16
744.666	42.44
744.846	43.23
745.026	43.24
745.207	44.91
745.387	44.98
745.567	44.56
745.747	44.08
745.928	43.35
746.108	45.48
746.288	45.35
746.468	44.74
746.648	44.46
746.829	44.01
747.009	42.6
747.189	40.87
747.369	41.76
747.549	41.69
747.729	40.97
747.909	41.53
748.089	40.48
748.269	40.19
748.449	40.65
748.629	41.22
748.809	40.08
748.989	41.85
749.169	42.7
749.349	42.16
749.529	43.01
749.709	45.13
749.889	45.84
750.068	45.17
750.248	44.95
750.428	44.75
750.608	44
750.788	45.73
750.967	45.74
751.147	47.24
751.327	46.21
751.507	45.48
751.686	45.82
751.866	43.93
752.046	44.57
752.225	45.19
752.405	46.17
752.585	46.95
752.764	45.86
752.944	44.47
753.123	42.66
753.303	42.55
753.482	41.98
753.662	41.68
753.841	42.47
754.021	42.78
754.2	42.07
754.38	42.33
754.559	41.56
754.739	41.12
754.918	41.32
755.097	42.67
755.277	41.71
755.456	41.29
755.635	38.73
755.815	40.41
755.994	41.05
756.173	41.9
756.352	40.07
756.532	39.49
756.711	41.45
756.89	42.23
757.069	40.08
757.248	41.38
757.427	41.44
757.607	42.52
757.786	42.57
757.965	42.53
758.144	43.23
758.323	44.51
758.502	45.62
758.681	43.61
758.86	43.11
759.039	44.51
759.218	46
759.397	46.99
759.576	47.51
759.755	46.9
759.934	46.55
760.113	45.23
760.291	44.69
760.47	45.74
760.649	44.92
760.828	45.86
761.007	46.57
761.186	44.31
761.364	43.61
761.543	43.57
761.722	44.21
761.901	43.23
762.079	43.74
762.258	43.92
762.437	42.33
762.615	44.42
762.794	44.6
762.972	44.06
763.151	44.43
763.33	45.6
763.508	45.62
763.687	45.55
763.865	46.29
764.044	45.17
764.222	45.81
764.401	46.36
764.579	45.46
764.758	44.92
764.936	44.89
765.114	45.35
765.293	44.1
765.471	44.7
765.65	43.57
765.828	42.42
766.006	43.51
766.184	42.8
766.363	42.32
766.541	43.5
766.719	43.34
766.898	42.85
767.076	42.11
767.254	43.09
767.432	41.18
767.61	40.85
767.788	41.59
767.967	41.7
768.145	39.44
768.323	40.05
768.501	39.45
768.679	38.69
768.857	38.11
769.035	38.56
769.213	37.07
769.391	37.07
769.569	38.02
769.747	38.25
769.925	37
770.103	38.6
770.281	37.78
770.459	37.59
770.636	39.8
770.814	41.03
770.992	41.08
771.17	42.41
771.348	43.39
771.525	42.03
771.703	42.18
771.881	42.71
772.059	42.06
772.236	40.4
772.414	37.55
772.592	35.22
772.769	33.64
772.947	34.47
773.125	33.91
773.302	32.48
773.48	32.81
773.657	33.8
773.835	35.99
774.013	36.35
774.19	38.53
774.368	40.27
774.545	40.6
774.723	44.8
774.9	42.46
775.077	40.57
775.255	41.69
775.432	42.99
775.61	40.67
775.787	39.6
775.964	39.4
776.142	34.99
776.319	32.77
776.496	31.77
776.674	28.44
776.851	29.41
777.028	31.4
777.205	32.47
777.382	31.84
777.56	32.14
777.737	30.56
777.914	31.01
778.091	35.01
778.268	37.7
778.445	37.43
778.622	36.72
778.8	36.47
778.977	33.57
779.154	33.67
779.331	32.11
779.508	32.66
779.685	31.34
779.862	30.74
780.038	28.51
780.215	27.63
780.392	28.97
780.569	26.28
780.746	26.38
780.923	26.65
781.1	24.18
781.277	24.71
781.453	23.27
781.63	26.62
781.807	28.16
781.984	28.01
782.16	30.89
782.337	29.11
782.514	30.92
782.691	32.15
782.867	33.12
783.044	34.27
783.221	35.21
783.397	35.61
783.574	37.23
783.75	34.91
783.927	34.89
784.103	32.61
784.28	33.52
784.456	36.88
784.633	33.91
784.809	32.09
784.986	32.28
785.162	30.62
785.339	31.41
785.515	26.7
785.692	29.15
785.868	30.67
786.044	30.82
786.221	31.19
786.397	28.84
786.573	32.6
786.749	35.36
786.926	39.08
787.102	37.16
787.278	37.26
787.454	41.13
787.631	39.64
787.807	38.62
787.983	37.18
788.159	36.98
788.335	38.78
788.511	38.41
788.687	40.06
788.863	39.08
789.039	40.56
789.216	40.62
789.392	39.43
789.568	37.22
789.744	38.21
789.919	38.23
790.095	37.84
790.271	35.29
790.447	33.84
790.623	30.23
790.799	26.72
790.975	30.12
791.151	27.68
791.327	26
791.502	27.22
791.678	23.8
791.854	24.75
792.03	21.63
792.205	26.38
792.381	23.42
792.557	22.8
792.733	19.07
792.908	16.71
793.084	20.12
793.259	17.01
793.435	17.54
793.611	23.59
793.786	23.67
793.962	26.13
794.137	24.85
794.313	24.45
794.488	25.69
794.664	27.27
794.839	27.36
795.015	27.39
795.19	31.39
795.366	31.09
795.541	27.87
795.716	27.28
795.892	27.49
796.067	23.62
796.242	28.45
796.418	28.34
796.593	28.9
796.768	27.38
796.944	24.17
797.119	23.62
797.294	22.83
797.469	20.75
797.644	19.68
797.82	16.29
797.995	19.43
798.17	16.41
798.345	18.04
798.52	22.42
798.695	26
798.87	26.39
799.045	25.58
799.22	27.47
799.395	30.54
799.57	29.87
799.745	31.17
799.92	27.97
800.095	28.46
800.27	26.45
800.445	22.99
800.62	17.49
800.795	15.15
800.97	13.86
801.145	12.75
801.319	4.34
801.494	4.24
801.669	9.13
801.844	10.05
802.018	12.71
802.193	14.87
802.368	20.95
802.543	19.92
802.717	22.64
802.892	25.17
803.067	23.03
803.241	32.07
803.416	31.12
803.59	30.25
803.765	34.75
803.94	30.04
804.114	27.92
804.289	25.07
804.463	26.28
804.638	25.12
804.812	22.22
804.986	27.15
805.161	21.02
805.335	22.24
805.51	18.34
805.684	13.01
805.858	10.98
806.033	9.57
806.207	6.04
806.381	9.48
806.556	10.36
806.73	10.96
806.904	9.94
807.078	14.73
807.253	14.85
807.427	18.59
807.601	23.67
807.775	28.14
807.949	28.92
808.123	24.07
808.298	20.11
808.472	13.89
808.646	11.47
808.82	6.77
808.994	8.03
809.168	8.83
809.342	4.17
809.516	0.88
809.69	-1.86
809.864	0.08
810.038	5.98
810.212	10.36
810.385	16.71
810.559	19.59
810.733	22.62
810.907	17.44
811.081	18.92
811.255	21.29
811.428	18.46
811.602	19.42
811.776	16.59
811.95	18.33
812.123	17.72
812.297	19.42
812.471	14.2
812.644	15.85
812.818	11.63
812.992	8.54
813.165	3.38
813.339	1.21
813.512	-0.53
813.686	-0.38
813.86	-3.5
814.033	-10.81
814.207	-11.75
814.38	-10.27
814.554	-21.05
814.727	-16.91
814.9	-19.98
815.074	-9.18
815.247	-0.1
815.421	2.42
815.594	0.13
815.767	0.71
815.941	-0.28
816.114	5.05
816.287	8.89
816.46	11.17
816.634	12.47
816.807	10.79
816.98	2.57
817.153	-2.49
817.327	-9.13
817.5	-2.78
817.673	0.79
817.846	10.28
818.019	4.74
818.192	-0.4
818.365	-4.15
818.538	-4.01
818.711	5.17
818.884	9.43
819.057	10.69
819.23	16.81
819.403	17.75
819.576	17.14
819.749	18.4
819.922	22.42
820.095	24.01
820.268	32.01
820.441	33.13
820.614	31.54
820.786	32.73
820.959	35.51
821.132	36.92
821.305	36.09
821.477	37.95
821.65	38.08
821.823	39.69
821.996	41.23
822.168	41.34
822.341	42.33
822.514	43.56
822.686	44.31
822.859	43.67
823.031	43.28
823.204	44.21
823.376	44.24
823.549	44.61
823.722	44.36
823.894	44.21
824.067	43.19
824.239	43
824.411	42.17
824.584	41.97
824.756	41.72
824.929	41.54
825.101	40.77
825.273	41.04
825.446	40.64
825.618	39.68
825.79	39
825.963	39.47
826.135	38.22
826.307	38.65
826.479	37.45
826.652	38.18
826.824	39.57
826.996	40.52
827.168	38.55
827.34	38.16
827.512	36.56
827.684	35.3
827.856	35.53
828.029	35.58
828.201	34.98
828.373	34.67
828.545	33.76
828.717	29.31
828.889	28.75
829.061	26.51
829.232	24.99
829.404	27.26
829.576	28.37
829.748	26.99
829.92	24.07
830.092	21.82
830.264	21.4
830.436	20.9
830.607	21.41
830.779	18.85
830.951	21.8
831.123	23.68
831.294	19.8
831.466	15.38
831.638	15
831.809	17.85
831.981	19.97
832.153	19.77
832.324	16.2
832.496	19.95
832.667	17.59
832.839	15.82
833.011	15.99
833.182	16.09
833.354	19.73
833.525	23.83
833.697	21
833.868	20.77
834.039	20.84
834.211	21.94
834.382	24.97
834.554	27.05
834.725	27.9
834.896	25.14
835.068	26.03
835.239	27.23
835.41	25.15
835.581	26.56
835.753	27.77
835.924	27.85
836.095	31.05
836.266	27.84
836.438	26.83
836.609	28.57
836.78	28.16
836.951	24.69
837.122	19.89
837.293	19.09
837.464	23.3
837.635	20.72
837.806	21.45
837.977	13.27
838.148	12.7
838.319	5.77
838.49	0.37
838.661	2.19
838.832	7.14
839.003	12.15
839.174	8.74
839.345	5.43
839.516	8.05
839.687	3.13
839.857	9.18
840.028	5.11
840.199	17.68
840.37	23.17
840.54	23.86
840.711	23.36
840.882	21.24
841.053	21.49
841.223	26.23
841.394	25.19
841.564	21.63
841.735	18.22
841.906	22.19
842.076	7.19
842.247	-3.93
842.417	-8.3
842.588	-13.79
842.758	-26.46
842.929	-11.96
843.099	-20.29
843.27	-40.39
843.44	-35
843.611	-42.19
843.781	-66.08
843.951	-46.71
844.122	-72.03
844.292	-72.2
844.462	-83.97
844.633	-89.25
844.803	-95.96
844.973	-115.43
845.144	-102.75
845.314	-118.7
845.484	-121.48
845.654	-52.6
845.824	-64.24
845.995	-26.54
846.165	-26.75
846.335	-11.33
846.505	-4.01
846.675	-27.67
846.845	-24.65
847.015	-22.88
847.185	-22.52
847.355	-13.66
847.525	-39.76
847.695	-40.48
847.865	-72.48
848.035	-92.07
848.205	-143.2
848.375	-136.98
848.545	-158.34
848.715	-294.72
848.884	-424.26
849.054	-198.98
849.224	-280.41
849.394	-241.15
849.564	-326.27
849.733	-328.3
849.903	-249.71
850.073	-296.15
850.243	-495.75
850.412	-177.75
850.582	-145.53
850.752	-159.88
850.921	-129.36
851.091	-180.31
851.26	-141.66
851.43	-152.32
851.599	-134.45
851.769	-79.75
851.939	-53.21
852.108	-52.26
852.278	-83.65
852.447	-96.08
852.616	-88.17
852.786	-190.41
852.955	-68.5
853.125	-124.64
853.294	-108.57
853.463	-77.7
853.633	-154.72
853.802	162.74
853.971	269.1
854.141	2133.94
854.31	-262.67
854.479	-33.45
854.648	-0.98
854.818	-100
854.987	-132.44
855.156	-61.42
855.325	-69.59
855.494	-51.67
855.663	-20.07
855.832	-2.02
856.001	-16.22
856.171	-23.21
856.34	-76.74
856.509	-72.53
856.678	-145.08
856.847	-62.54
857.016	-50.29
857.185	-68.22
857.353	-77.74
857.522	-70.08
857.691	-112.29
857.86	-122.78
858.029	-94.97
858.198	-75.61
858.367	-169.43
858.535	-80.88
858.704	-168.61
858.873	-132.78
859.042	-111.24
859.21	-192.3
859.379	-223.81
859.548	-441.39
859.717	-388.14
859.885	-1240.21
860.054	982.31
860.222	1065.47
860.391	-1232.12
860.56	-353.17
860.728	-539.97
860.897	-480.26
861.065	-424.72
861.234	-388.58
861.402	-402.67
861.571	-405.75
861.739	-498.86
861.908	-507.49
862.076	-338.69
862.244	-191.07
862.413	-416.33
862.581	-341.19
862.749	35693.33
862.918	1115.97
863.086	1142.13
863.254	-947.61
863.423	3470.08
863.591	-518.04
863.759	-280.62
863.927	-329.35
864.096	-643.06
864.264	-242.36
864.432	-676.01
864.6	-254.06
864.768	-119.52
864.936	-170.95
865.104	-237.17
865.272	-333.08
865.44	963.64
865.608	220.35
865.776	-2638.1
865.944	267.64
866.112	245.26
866.28	582
866.448	379.23
866.616	332.07
866.784	849.48
866.952	-960.29
867.12	-844.52
867.288	-390.45
867.455	-254.61
867.623	-267.5
867.791	-281.25
867.959	-237.92
868.127	-142.34
868.294	-173.08
868.462	-287.3
868.63	-506.19
868.797	-3296.36
868.965	-876.68
869.133	-1583.2
869.3	6301.59
869.468	1442.82
869.636	1011.87
869.803	562.84
869.971	242.63
870.138	292.37
870.306	237.52
870.473	215.04
870.641	256.97
870.808	275.43
870.975	225.35
871.143	213.03
871.31	194.16
871.478	203
871.645	214.11
871.812	290.57
871.98	278.01
872.147	459.11
872.314	824.92
872.482	369.17
872.649	233.64
872.816	229.5
872.983	197.63
873.15	211.75
873.318	214.7
873.485	254.45
873.652	305.55
873.819	584.9
873.986	537.79
874.153	619.83
874.32	409.53
874.487	371.59
874.654	757.79
874.821	-220.86
874.988	-1377.91
875.155	-337.96
875.322	-661.58
875.489	-242.66
875.656	-508.17
875.823	-1145.34
875.99	978.24
876.157	-537.86
876.324	-689.68
876.49	-347.75
876.657	22302.33
876.824	454.42
876.991	471.65
877.157	739.28
877.324	633.14
877.491	316.81
877.658	454.37
877.824	596.64
877.991	529.05
878.157	596.95
878.324	435.44
878.491	879.11
878.657	-267.74
878.824	-700.74
878.99	9240.74
879.157	597.03
879.323	-2674.68
879.49	-715.73
879.656	-1376.01
879.823	-587.87
879.989	-782.72
880.156	9191.58
880.322	-4288.89
880.488	-1473.24
880.655	-1517.67
880.821	-434.18
880.987	-339.97
881.154	-244.66
881.32	-257.71
881.486	-118.92
881.652	-119.53
881.819	-42.9
881.985	-24.61
882.151	2.91
882.317	6.67
882.483	10.43
882.649	18.46
882.816	15.93
882.982	19.9
883.148	25.22
883.314	26.12
883.48	28.26
883.646	27.37
883.812	29.86
883.978	27.29
884.144	25.13
884.31	24.12
884.476	21.89
884.642	26.33
884.807	27.84
884.973	25.74
885.139	24.66
885.305	23.85
885.471	21.95
885.637	14.24
885.802	11.48
885.968	13.59
886.134	11.75
886.3	8.99
886.465	-5.61
886.631	-18.37
886.797	-21.52
886.962	-36.91
887.128	-65.77
887.293	-72.85
887.459	-56.68
887.625	-59.65
887.79	-128.99
887.956	-149.43
888.121	-135.71
888.287	-128.6
888.452	-142.67
888.618	-145.13
888.783	-130.57
