Data from 2937842_Reflection_3.txt Node
Date: Wed Jul 15 16:14:25 EDT 2015
User: robert
Spectrometer: USB4E03001
Autoset integration time: false
Trigger mode: 4
Integration Time (sec): 1.000000E-1
Scans to average: 10
Electric dark correction enabled: true
Nonlinearity correction enabled: false
Boxcar width: 5
Stray light correction enabled: false
XAxis mode: Wavelengths
Stop averaging: false
Number of Pixels in Spectrum: 3648
>>>>>Begin Spectral Data<<<<<
177.566	94.59
177.785	305.11
178.005	-183.96
178.225	-743.84
178.445	70.99
178.665	161.3
178.885	597.33
179.105	161.13
179.324	242.5
179.544	8121.87
179.764	-862.34
179.984	-385.89
180.204	-107.84
180.423	-48.04
180.643	-99.59
180.863	-60.46
181.083	-134.27
181.302	-27.66
181.522	-142.69
181.742	-134.55
181.961	-187.46
182.181	-14822.22
182.401	-546.99
182.621	-633.73
182.84	-6344.07
183.06	-349.72
183.279	-143.06
183.499	-131.2
183.719	-157.55
183.938	-79.96
184.158	-88.73
184.377	-77.42
184.597	-54.23
184.816	-80.74
185.036	-63.33
185.256	-78.66
185.475	-135.1
185.695	-89.84
185.914	-67.11
186.134	-186.73
186.353	-6908.86
186.572	-368.84
186.792	-98.56
187.011	-142.05
187.231	-476.48
187.45	-312.07
187.67	-253.62
187.889	-125.52
188.108	-179.31
188.328	-190.85
188.547	-269.72
188.766	-314.02
188.986	-480.26
189.205	713.95
189.424	450.29
189.644	555.45
189.863	683.04
190.082	464.69
190.302	261.58
190.521	374.58
190.74	281.81
190.959	309.61
191.178	824.07
191.398	278.98
191.617	-10259.09
191.836	5341.29
192.055	-328.84
192.274	-709.64
192.494	-1059.06
192.713	-3898.98
192.932	476.91
193.151	311.71
193.37	538.88
193.589	287.57
193.808	1809.25
194.027	275.43
194.246	249.43
194.465	280.64
194.685	-19690
194.904	-1308
195.123	1536.43
195.342	-3886.6
195.561	-186.41
195.78	-199.84
195.999	-269.64
196.218	14089.47
196.436	-102.44
196.655	-13.21
196.874	-402.08
197.093	-6348.15
197.312	81.82
197.531	59.37
197.75	131.22
197.969	131.73
198.188	99.47
198.407	88.05
198.625	52.29
198.844	26.29
199.063	25.82
199.282	31.62
199.501	11.91
199.719	16.19
199.938	9.3
200.157	-39.63
200.376	-110.2
200.594	-148.8
200.813	1117.41
201.032	321.72
201.251	301.29
201.469	1014.12
201.688	600.43
201.907	187.11
202.125	-1160.47
202.344	268.23
202.563	413.86
202.781	14136
203	360.4
203.218	575.04
203.437	571.29
203.656	256.33
203.874	212.03
204.093	279.38
204.311	231.4
204.53	203.53
204.748	520.96
204.967	5752.26
205.185	-573.16
205.404	-190.66
205.622	-107.27
205.841	-127.71
206.059	-90.21
206.278	-32.5
206.496	-66.32
206.715	-102.97
206.933	-165.31
207.151	-119.51
207.37	-101.64
207.588	-61.61
207.806	-93.29
208.025	-68.02
208.243	-51.71
208.461	-63.14
208.68	-21.52
208.898	7
209.116	28.54
209.335	40.25
209.553	38.72
209.771	28.61
209.989	14.13
210.208	12.33
210.426	-13.59
210.644	-19.73
210.862	18.78
211.081	-142.13
211.299	-158.21
211.517	-129.4
211.735	-1949.33
211.953	-3225.88
212.171	298.99
212.39	479.05
212.608	-4592.37
212.826	-2886.81
213.044	-246.18
213.262	-154.21
213.48	-269.79
213.698	2478.35
213.916	-340.59
214.134	-86.37
214.352	-181
214.57	-423.15
214.788	429.58
215.006	290.42
215.224	-666.67
215.442	-765.21
215.66	242.98
215.878	247.77
216.096	1997.63
216.314	345.4
216.532	286.46
216.75	655.77
216.968	-3653.15
217.185	-173.63
217.403	-256.62
217.621	1099.44
217.839	946.02
218.057	1002.76
218.275	-1672.95
218.492	-1789.91
218.71	-1412.25
218.928	-845.82
219.146	-183.62
219.363	-109.36
219.581	-221.05
219.799	-104.16
220.017	-93.64
220.234	-97.92
220.452	-52.01
220.67	-60.87
220.887	-45.56
221.105	-38.41
221.323	-47.29
221.54	-65.14
221.758	-131.67
221.976	-134.01
222.193	-224.38
222.411	-98.81
222.629	-82.42
222.846	-72.27
223.064	-44.8
223.281	-17.21
223.499	14.63
223.716	12.58
223.934	26.84
224.151	61.85
224.369	80.24
224.586	86.52
224.804	73.62
225.021	72.76
225.239	39.39
225.456	32.79
225.674	-1.54
225.891	-31.81
226.108	-33.14
226.326	-43.49
226.543	-23.26
226.76	-27.24
226.978	-31.13
227.195	-20.83
227.413	-16.36
227.63	-7.61
227.847	-3.06
228.064	-5.6
228.282	1.26
228.499	2.88
228.716	3.63
228.934	-0.88
229.151	2.58
229.368	0.03
229.585	-1.45
229.802	-0.2
230.02	0.65
230.237	-2.36
230.454	1.65
230.671	0.43
230.888	0.03
231.105	2.02
231.323	2.69
231.54	0.5
231.757	-0.9
231.974	-3.17
232.191	-1.89
232.408	2.27
232.625	6.51
232.842	3
233.059	-7.8
233.276	-10.86
233.493	-18.71
233.71	-6.13
233.927	-5.45
234.144	3.63
234.361	-0.6
234.578	-11.08
234.795	-14.97
235.012	-19.95
235.229	-10.87
235.446	-9.93
235.663	-6.44
235.879	-2.73
236.096	-3.24
236.313	-5.13
236.53	-0.62
236.747	-1.92
236.964	5.3
237.181	-0.35
237.397	0.52
237.614	-9.17
237.831	0.83
238.048	-5.48
238.264	-5.69
238.481	-8.02
238.698	-0.32
238.915	-0.17
239.131	16.92
239.348	20.56
239.565	20.01
239.781	19.1
239.998	21.89
240.215	20.96
240.431	25.24
240.648	22.54
240.865	17.05
241.081	12.74
241.298	10.69
241.514	5.23
241.731	4.95
241.947	5.34
242.164	5.45
242.38	3.33
242.597	0.71
242.814	-1.18
243.03	-0.2
243.246	2.97
243.463	3.24
243.679	3.41
243.896	4.86
244.112	2.92
244.329	3.71
244.545	5.8
244.762	7.38
244.978	8.27
245.194	9.45
245.411	8.51
245.627	8.92
245.843	10.07
246.06	10.74
246.276	10.7
246.492	11.13
246.709	11.16
246.925	10.41
247.141	10.2
247.357	10.78
247.574	9.98
247.79	10.13
248.006	9.3
248.222	9.33
248.439	9.8
248.655	9.59
248.871	9.16
249.087	8.05
249.303	9.41
249.519	9.16
249.736	10.39
249.952	9.96
250.168	10.89
250.384	8.77
250.6	7.11
250.816	4.47
251.032	5.05
251.248	4.86
251.464	7.35
251.68	3.92
251.896	3.84
252.112	-0.57
252.328	1.18
252.544	-2.12
252.76	-0.93
252.976	-0.11
253.192	0.33
253.408	-1.44
253.624	-4.15
253.84	-4.36
254.056	-1.59
254.272	-1.52
254.487	-0.24
254.703	0.38
254.919	4.57
255.135	6.69
255.351	3.77
255.567	2.74
255.782	5.85
255.998	8.7
256.214	4.63
256.43	2.42
256.646	1.89
256.861	3.66
257.077	4.75
257.293	3.88
257.508	2.61
257.724	4.84
257.94	7.63
258.155	6.97
258.371	8.5
258.587	8.63
258.802	8.46
259.018	7.43
259.234	7.67
259.449	8.42
259.665	8.86
259.88	9.22
260.096	9.54
260.312	9.03
260.527	9.38
260.743	9.44
260.958	9.99
261.174	10.43
261.389	11.83
261.605	12.49
261.82	11.55
262.036	11.65
262.251	11.54
262.466	11.45
262.682	9.68
262.897	8.14
263.113	7.32
263.328	5.46
263.543	6.19
263.759	5.39
263.974	3.56
264.189	4.12
264.405	3.51
264.62	4.54
264.835	3.37
265.051	4.43
265.266	3.14
265.481	2.61
265.696	3.41
265.912	0.15
266.127	-3.33
266.342	-2.39
266.557	-1.56
266.773	-1.9
266.988	-2.45
267.203	-2.03
267.418	-0.2
267.633	-0.44
267.848	-0.55
268.064	-0.59
268.279	-0.99
268.494	2.2
268.709	-0.04
268.924	-0.05
269.139	1.19
269.354	1.83
269.569	0.46
269.784	1.35
269.999	4.28
270.214	4.55
270.429	4.91
270.644	5.1
270.859	6.27
271.074	7.74
271.289	8.68
271.504	7.88
271.719	8.3
271.934	9.44
272.149	7.05
272.363	6.72
272.578	7.27
272.793	7.04
273.008	7.99
273.223	7.1
273.438	5.99
273.653	4.84
273.867	3.94
274.082	3.12
274.297	2.52
274.512	2.87
274.726	2.79
274.941	2.14
275.156	2.21
275.371	1.92
275.585	-0.52
275.8	0.97
276.015	1.08
276.229	2.54
276.444	1.76
276.659	2.87
276.873	2.66
277.088	2.49
277.302	1.45
277.517	2.75
277.732	1.75
277.946	3.83
278.161	3.97
278.375	3.87
278.59	2.99
278.804	2.06
279.019	-0.39
279.233	-0.85
279.448	-1.93
279.662	0.28
279.877	0.85
280.091	-0.26
280.306	-0.3
280.52	-0.29
280.735	-0.02
280.949	1.48
281.163	2.35
281.378	3.61
281.592	4.65
281.806	5.9
282.021	4.38
282.235	3.95
282.449	5.01
282.664	5.07
282.878	4.48
283.092	5.41
283.307	3.48
283.521	3.22
283.735	4.06
283.949	5.01
284.164	4.58
284.378	4.24
284.592	4.33
284.806	4.24
285.02	4.87
285.234	6.35
285.449	4.98
285.663	5.78
285.877	6.05
286.091	4.39
286.305	3.31
286.519	2.76
286.733	4.27
286.947	3.21
287.161	4.75
287.375	2.24
287.589	1.47
287.803	0.99
288.017	1.25
288.231	0.76
288.445	2.23
288.659	1.34
288.873	0.92
289.087	1.34
289.301	2.23
289.515	2.24
289.729	2.46
289.943	3.22
290.157	4.83
290.371	4.56
290.584	6.26
290.798	5.83
291.012	6.97
291.226	7.64
291.44	7.31
291.654	6.84
291.867	6.04
292.081	8.02
292.295	8.44
292.509	7.98
292.722	6.38
292.936	5.7
293.15	7.46
293.364	8.52
293.577	7.77
293.791	6.08
294.005	6.21
294.218	5.73
294.432	5.17
294.645	3.82
294.859	4.39
295.073	6.12
295.286	5
295.5	2.77
295.713	2.61
295.927	3.74
296.14	4.78
296.354	5.97
296.568	6.44
296.781	7.28
296.994	7.66
297.208	7.82
297.421	8.05
297.635	9.85
297.848	10.37
298.062	10.9
298.275	11.28
298.489	12.18
298.702	10.84
298.915	10.84
299.129	11.62
299.342	11.32
299.555	10.76
299.769	10.76
299.982	10.29
300.195	12.29
300.409	11.38
300.622	9.97
300.835	9.65
301.048	11.66
301.262	11.33
301.475	9.39
301.688	9.74
301.901	12.02
302.115	12.68
302.328	12.19
302.541	9.45
302.754	10.72
302.967	10.55
303.18	10.5
303.393	8.66
303.607	8.89
303.82	9.57
304.033	11.11
304.246	9.69
304.459	9.94
304.672	9.37
304.885	9.63
305.098	7.35
305.311	8.26
305.524	7.02
305.737	8.66
305.95	9.34
306.163	10.06
306.376	9.93
306.589	10.55
306.802	10.63
307.015	12.41
307.228	13.55
307.44	14.96
307.653	16.01
307.866	17.9
308.079	17.4
308.292	17.99
308.505	16.8
308.718	14.87
308.93	14.45
309.143	14.92
309.356	14.71
309.569	14.67
309.781	14.54
309.994	13.79
310.207	12.75
310.42	12.92
310.632	13.04
310.845	14.39
311.058	15.03
311.27	16.24
311.483	16.22
311.696	16.02
311.908	16.84
312.121	17.72
312.333	17.87
312.546	18.42
312.759	20.37
312.971	20.4
313.184	19.69
313.396	20.13
313.609	18.63
313.821	17.85
314.034	17.82
314.246	16.47
314.459	16.19
314.671	16.88
314.884	17.36
315.096	17.95
315.309	17.04
315.521	16.09
315.733	16.01
315.946	15.31
316.158	15
316.371	14.76
316.583	15.49
316.795	15.76
317.008	16.18
317.22	16.05
317.432	13.09
317.644	13.48
317.857	14.83
318.069	15.08
318.281	15.48
318.494	16.22
318.706	16.66
318.918	16.5
319.13	15.03
319.342	15.36
319.555	15.69
319.767	16.82
319.979	17.68
320.191	18.03
320.403	18.5
320.615	19.46
320.827	18.71
321.039	18.93
321.252	17.66
321.464	18.82
321.676	16.65
321.888	16.38
322.1	14.89
322.312	14.26
322.524	14.64
322.736	14.34
322.948	12.39
323.16	11.72
323.372	11.36
323.584	13.08
323.796	11.99
324.007	14.2
324.219	13.03
324.431	13.28
324.643	13.81
324.855	13.6
325.067	13.77
325.279	15.28
325.491	16.5
325.702	15.75
325.914	15.46
326.126	15.25
326.338	13.7
326.55	14.7
326.761	16.04
326.973	16.51
327.185	15.81
327.396	16.76
327.608	16.4
327.82	17.02
328.032	17.11
328.243	18.82
328.455	19.82
328.666	20.78
328.878	22.65
329.09	22.25
329.301	23.14
329.513	24.49
329.725	24.2
329.936	24.76
330.148	24.64
330.359	26.63
330.571	26.17
330.782	27.02
330.994	26.45
331.205	24.58
331.417	25.76
331.628	24.76
331.84	25.37
332.051	24.92
332.262	24.59
332.474	24.71
332.685	23.78
332.897	23.57
333.108	24.75
333.319	27.25
333.531	29.52
333.742	28.62
333.953	30.16
334.165	30.06
334.376	33.45
334.587	35.59
334.799	36.24
335.01	37.55
335.221	37.7
335.432	37.26
335.644	36.04
335.855	34.89
336.066	35.8
336.277	34.12
336.488	36
336.7	34.86
336.911	34.68
337.122	34.57
337.333	33.7
337.544	33.19
337.755	33.32
337.966	34.52
338.177	35.79
338.388	36.1
338.599	37.62
338.811	36.23
339.022	36.02
339.233	35.17
339.444	35.48
339.655	37.32
339.866	38.5
340.076	39.08
340.287	40.07
340.498	40
340.709	40.28
340.92	39.74
341.131	39.79
341.342	40.8
341.553	41.2
341.764	42.08
341.975	41.54
342.185	41.87
342.396	41.43
342.607	40.61
342.818	41.44
343.029	41.04
343.239	42.32
343.45	42.38
343.661	41.75
343.872	42.2
344.082	41.8
344.293	42.55
344.504	43.61
344.714	43.53
344.925	44.51
345.136	43.97
345.346	43.42
345.557	42.71
345.768	43.76
345.978	42.32
346.189	42.12
346.399	41.88
346.61	41.31
346.821	40.7
347.031	41.14
347.242	40.89
347.452	40.91
347.663	42.44
347.873	42.03
348.084	41.38
348.294	43.9
348.504	44.26
348.715	45.24
348.925	45.67
349.136	45.22
349.346	45.67
349.557	44.93
349.767	44.49
349.977	43.38
350.188	43.55
350.398	42.81
350.608	42.76
350.819	42.82
351.029	41.41
351.239	40.87
351.449	41.01
351.66	41.09
351.87	40.74
352.08	41
352.29	41.08
352.501	42.44
352.711	43.28
352.921	41.84
353.131	42
353.341	42.84
353.552	44.23
353.762	44.09
353.972	43.36
354.182	43.72
354.392	43.52
354.602	44
354.812	42.48
355.022	41.97
355.232	42.25
355.442	42.19
355.652	42.51
355.862	41.18
356.072	40.89
356.282	41.48
356.492	41.4
356.702	41.58
356.912	41.94
357.122	42.05
357.332	41.95
357.542	42.01
357.752	41.06
357.962	40.94
358.171	40.9
358.381	41.48
358.591	41.64
358.801	43.04
359.011	44.02
359.221	43.21
359.43	43.06
359.64	43.82
359.85	44.22
360.06	45.14
360.269	44.85
360.479	45.58
360.689	45.29
360.899	45.35
361.108	44.55
361.318	44.4
361.528	45.2
361.737	45.32
361.947	44.85
362.156	44.71
362.366	44.55
362.576	44.15
362.785	43.75
362.995	43.38
363.204	42.82
363.414	43.32
363.623	42.82
363.833	42
364.042	42.7
364.252	42.5
364.461	42.45
364.671	42.59
364.88	43.19
365.09	43.46
365.299	43.64
365.509	44.08
365.718	43.54
365.927	43.25
366.137	42.93
366.346	42.37
366.555	42.73
366.765	42.45
366.974	41.78
367.183	41.71
367.393	41.6
367.602	41.8
367.811	41.02
368.021	40.75
368.23	40.67
368.439	40.79
368.648	40.5
368.857	40.97
369.067	41.1
369.276	41
369.485	40.43
369.694	39.54
369.903	40.07
370.112	40.65
370.321	40.44
370.531	40.39
370.74	40.67
370.949	40.04
371.158	38.96
371.367	38.82
371.576	39.24
371.785	40
371.994	40.54
372.203	39.99
372.412	39.74
372.621	39.49
372.83	39.45
373.039	39.25
373.248	40.06
373.457	41
373.666	40.36
373.874	39.73
374.083	39.07
374.292	38.8
374.501	37.96
374.71	38.46
374.919	38.14
375.128	37.91
375.336	38.16
375.545	37.79
375.754	37.5
375.963	38.38
376.171	38.78
376.38	39.14
376.589	38.64
376.798	39.53
377.006	39.23
377.215	40.18
377.424	40.05
377.632	39.49
377.841	39.61
378.05	39.64
378.258	38.61
378.467	38.99
378.675	38.52
378.884	39.16
379.093	39.26
379.301	39.49
379.51	39.51
379.718	39.91
379.927	40.27
380.135	40.25
380.344	40.18
380.552	41.09
380.761	40.4
380.969	41.04
381.177	41.15
381.386	40.74
381.594	40.17
381.803	38.91
382.011	38.14
382.219	37.92
382.428	37.86
382.636	37.81
382.845	37.91
383.053	38.41
383.261	38.35
383.469	38.55
383.678	38.19
383.886	38.34
384.094	38.37
384.302	38.7
384.511	38.7
384.719	38.21
384.927	37.97
385.135	37.39
385.343	37.08
385.552	36.27
385.76	35.26
385.968	35.39
386.176	35.63
386.384	35.87
386.592	36.14
386.8	36.08
387.008	36.3
387.216	35.87
387.424	35.89
387.633	35.39
387.841	35.91
388.049	36.25
388.257	35.77
388.465	34.89
388.672	34.84
388.88	34.4
389.088	34.22
389.296	34.54
389.504	35
389.712	34.28
389.92	34.66
390.128	34.14
390.336	34.12
390.544	34.34
390.751	34.74
390.959	34.7
391.167	34.59
391.375	34.85
391.583	34.37
391.79	33.98
391.998	34.7
392.206	34.38
392.414	34.4
392.621	34.24
392.829	34.29
393.037	34.02
393.244	34.18
393.452	34.41
393.66	34.14
393.867	34.56
394.075	34.73
394.283	34.82
394.49	35.14
394.698	35.23
394.905	35.45
395.113	35.57
395.32	35.99
395.528	35.65
395.735	35.7
395.943	35.69
396.15	35.5
396.358	35.65
396.565	35.4
396.773	35.28
396.98	35.06
397.188	34.98
397.395	34.83
397.602	34.93
397.81	35.21
398.017	35.28
398.225	35.16
398.432	35.21
398.639	35.12
398.847	35.08
399.054	34.43
399.261	34.5
399.468	34.47
399.676	34.26
399.883	33.68
400.09	33.64
400.297	33.46
400.505	33.67
400.712	33.9
400.919	33.88
401.126	33.69
401.333	34.46
401.54	34.58
401.748	34.33
401.955	34.45
402.162	34.76
402.369	34.9
402.576	34.78
402.783	34.49
402.99	34.43
403.197	34.31
403.404	34.43
403.611	34
403.818	34.24
404.025	34.4
404.232	34.64
404.439	34.75
404.646	34.47
404.853	34.46
405.06	34.64
405.267	34.32
405.474	34.35
405.681	34.62
405.887	34.53
406.094	34.28
406.301	34.27
406.508	34.45
406.715	34.33
406.922	34.43
407.128	34.43
407.335	34.6
407.542	34.58
407.749	34.66
407.955	34.2
408.162	34.63
408.369	34.66
408.575	34.57
408.782	34.06
408.989	33.79
409.195	33.42
409.402	33.53
409.609	33.12
409.815	33.21
410.022	33.11
410.228	33.18
410.435	33.05
410.642	32.87
410.848	32.97
411.055	33.23
411.261	33.34
411.468	33.63
411.674	33.51
411.881	33.67
412.087	33.75
412.294	33.83
412.5	33.98
412.706	34.13
412.913	34.18
413.119	33.98
413.326	33.36
413.532	33.56
413.738	33.35
413.945	33.29
414.151	33.32
414.357	33.11
414.564	33.22
414.77	33.46
414.976	33.27
415.182	33.56
415.389	33.62
415.595	33.93
415.801	33.65
416.007	33.76
416.214	33.87
416.42	33.62
416.626	33.77
416.832	33.62
417.038	33.21
417.244	33.4
417.45	33.18
417.657	33.27
417.863	33.11
418.069	33.23
418.275	33.14
418.481	33.17
418.687	33.27
418.893	33.19
419.099	33.3
419.305	33.53
419.511	33.32
419.717	33.33
419.923	33.31
420.129	33.43
420.335	33.39
420.541	33.51
420.746	33.19
420.952	33.22
421.158	33.23
421.364	33.02
421.57	32.91
421.776	33.07
421.982	33.11
422.187	33.06
422.393	33
422.599	32.96
422.805	32.91
423.01	33.13
423.216	33.09
423.422	32.95
423.628	33.14
423.833	33.23
424.039	33.2
424.245	33.25
424.45	33.28
424.656	33.29
424.862	33.31
425.067	33.34
425.273	33.4
425.478	33.35
425.684	33.48
425.889	33.35
426.095	33.14
426.301	33.02
426.506	32.94
426.712	32.79
426.917	32.72
427.123	32.53
427.328	32.59
427.533	32.5
427.739	32.57
427.944	32.4
428.15	32.27
428.355	32.5
428.561	32.5
428.766	32.14
428.971	32.54
429.177	32.49
429.382	32.88
429.587	32.71
429.793	32.58
429.998	32.77
430.203	32.85
430.408	32.81
430.614	32.56
430.819	32.54
431.024	33.06
431.229	32.59
431.434	32.68
431.64	32.62
431.845	32.64
432.05	32.58
432.255	32.54
432.46	32.63
432.665	32.68
432.87	32.91
433.076	32.93
433.281	32.72
433.486	32.91
433.691	32.89
433.896	32.65
434.101	32.6
434.306	32.64
434.511	32.47
434.716	32.47
434.921	32.45
435.126	32.37
435.331	32.34
435.535	32.32
435.74	32.28
435.945	32.26
436.15	32.6
436.355	32.65
436.56	32.84
436.765	32.82
436.97	32.78
437.174	33.04
437.379	33.11
437.584	33.05
437.789	33.1
437.993	33.11
438.198	33.11
438.403	32.96
438.608	33.06
438.812	32.8
439.017	33.04
439.222	33.06
439.426	32.9
439.631	32.85
439.836	33
440.04	32.96
440.245	32.83
440.45	32.82
440.654	32.74
440.859	32.77
441.063	33.09
441.268	32.84
441.472	32.85
441.677	32.83
441.881	32.88
442.086	32.91
442.29	32.95
442.495	33.04
442.699	32.98
442.904	33
443.108	32.88
443.312	32.6
443.517	32.78
443.721	32.96
443.925	33.04
444.13	32.98
444.334	32.87
444.538	32.88
444.743	32.87
444.947	32.87
445.151	33.03
445.356	32.97
445.56	32.93
445.764	32.86
445.968	32.7
446.173	32.55
446.377	32.63
446.581	32.58
446.785	32.67
446.989	32.66
447.193	32.85
447.398	32.7
447.602	32.89
447.806	32.94
448.01	32.98
448.214	32.91
448.418	33.14
448.622	32.83
448.826	32.75
449.03	32.65
449.234	32.84
449.438	32.85
449.642	32.98
449.846	32.66
450.05	32.63
450.254	32.49
450.458	32.59
450.662	32.4
450.866	32.72
451.069	32.85
451.273	32.83
451.477	32.64
451.681	32.54
451.885	32.61
452.089	32.73
452.292	32.62
452.496	32.78
452.7	32.58
452.904	32.64
453.107	32.4
453.311	32.47
453.515	32.46
453.719	32.35
453.922	32.17
454.126	31.97
454.33	31.93
454.533	31.99
454.737	31.87
454.94	31.81
455.144	31.56
455.348	31.87
455.551	31.87
455.755	31.8
455.958	31.92
456.162	32.02
456.365	31.85
456.569	31.95
456.772	32.04
456.976	32.02
457.179	31.93
457.383	32.02
457.586	31.79
457.79	31.78
457.993	31.84
458.196	31.92
458.4	31.86
458.603	32.08
458.807	32.02
459.01	32.09
459.213	32.24
459.417	32.38
459.62	32.49
459.823	32.59
460.026	32.62
460.23	32.71
460.433	32.58
460.636	32.63
460.839	32.49
461.042	32.6
461.246	32.52
461.449	32.44
461.652	32.45
461.855	32.41
462.058	32.37
462.261	32.3
462.464	32.29
462.668	32.48
462.871	32.55
463.074	32.7
463.277	32.65
463.48	32.71
463.683	32.9
463.886	33.1
464.089	33.05
464.292	33.13
464.495	33.17
464.698	32.99
464.901	32.86
465.104	32.83
465.306	32.79
465.509	32.76
465.712	32.63
465.915	32.62
466.118	32.71
466.321	32.66
466.524	32.63
466.726	32.64
466.929	32.55
467.132	32.58
467.335	32.4
467.538	32.52
467.74	32.53
467.943	32.88
468.146	32.86
468.348	32.44
468.551	32.61
468.754	32.65
468.956	32.7
469.159	32.96
469.362	32.98
469.564	33.26
469.767	33.29
469.969	33.22
470.172	32.92
470.375	32.76
470.577	33.13
470.78	33.2
470.982	33.1
471.185	33.13
471.387	33.05
471.59	33.02
471.792	32.94
471.995	32.93
472.197	32.9
472.399	32.96
472.602	33.08
472.804	33.07
473.007	33.07
473.209	33.22
473.411	33.14
473.614	33
473.816	33.12
474.018	32.89
474.22	32.75
474.423	32.96
474.625	32.88
474.827	32.92
475.03	33.04
475.232	33.04
475.434	32.98
475.636	32.95
475.838	33.06
476.04	33.11
476.243	33.41
476.445	33.38
476.647	33.26
476.849	33.33
477.051	33.19
477.253	33.13
477.455	33.08
477.657	33.09
477.859	33.19
478.061	33.12
478.263	33.18
478.465	33.17
478.667	33.33
478.869	33.45
479.071	33.5
479.273	33.59
479.475	33.54
479.677	33.67
479.879	33.48
480.081	33.39
480.283	33.53
480.485	33.43
480.686	33.37
480.888	33.2
481.09	33.28
481.292	33.29
481.494	33.42
481.695	33.45
481.897	33.37
482.099	33.57
482.301	33.5
482.502	33.47
482.704	33.52
482.906	33.43
483.107	33.52
483.309	33.55
483.511	33.58
483.712	33.5
483.914	33.55
484.115	33.48
484.317	33.44
484.519	33.53
484.72	33.48
484.922	33.44
485.123	33.51
485.325	33.48
485.526	33.37
485.728	33.3
485.929	33.32
486.131	33.21
486.332	33.24
486.534	33.28
486.735	33.21
486.936	33.32
487.138	33.3
487.339	33.35
487.541	33.38
487.742	33.43
487.943	33.48
488.144	33.46
488.346	33.48
488.547	33.53
488.748	33.43
488.95	33.44
489.151	33.43
489.352	33.44
489.553	33.44
489.755	33.35
489.956	33.37
490.157	33.22
490.358	33.26
490.559	33.31
490.76	33.34
490.961	33.49
491.163	33.6
491.364	33.57
491.565	33.52
491.766	33.58
491.967	33.65
492.168	33.6
492.369	33.69
492.57	33.65
492.771	33.54
492.972	33.52
493.173	33.41
493.374	33.35
493.575	33.23
493.776	33.38
493.976	33.27
494.177	33.17
494.378	33.25
494.579	33.24
494.78	33.19
494.981	33.39
495.182	33.38
495.382	33.67
495.583	33.7
495.784	33.91
495.985	33.84
496.185	33.8
496.386	33.79
496.587	33.67
496.788	33.72
496.988	33.86
497.189	33.78
497.39	33.82
497.59	33.67
497.791	33.69
497.992	33.67
498.192	33.71
498.393	33.65
498.593	33.8
498.794	33.86
498.994	33.91
499.195	34.13
499.395	34.19
499.596	34.17
499.796	34.09
499.997	34.05
500.197	34.07
500.398	34.17
500.598	34.36
500.799	34.39
500.999	34.45
501.199	34.5
501.4	34.27
501.6	34.4
501.801	34.43
502.001	34.68
502.201	34.71
502.402	34.69
502.602	34.5
502.802	34.36
503.002	34.59
503.203	34.56
503.403	34.66
503.603	34.64
503.803	34.59
504.003	34.6
504.204	34.53
504.404	34.63
504.604	34.77
504.804	34.9
505.004	35.05
505.204	34.92
505.404	35.05
505.604	34.93
505.804	34.95
506.005	35.04
506.205	35.14
506.405	34.99
506.605	34.93
506.805	34.86
507.005	34.85
507.204	34.95
507.404	34.89
507.604	34.73
507.804	34.76
508.004	34.83
508.204	34.85
508.404	34.83
508.604	35.11
508.804	35.18
509.003	35.3
509.203	35.36
509.403	35.16
509.603	35.37
509.803	35.67
510.002	35.66
510.202	35.62
510.402	35.61
510.602	35.55
510.801	35.48
511.001	35.51
511.201	35.52
511.4	35.57
511.6	35.82
511.8	35.68
511.999	35.63
512.199	35.66
512.398	35.71
512.598	35.73
512.797	35.88
512.997	35.94
513.197	36.03
513.396	36.14
513.596	35.98
513.795	36.02
513.994	36.08
514.194	36.08
514.393	36.13
514.593	36.38
514.792	36.19
514.992	36.06
515.191	36.15
515.39	36.03
515.59	35.94
515.789	36.05
515.988	36.02
516.188	36.21
516.387	36.24
516.586	36.28
516.786	36.25
516.985	36.62
517.184	36.96
517.383	36.99
517.582	37.09
517.782	37.11
517.981	37.27
518.18	37.31
518.379	37.39
518.578	37.42
518.777	37.57
518.976	37.57
519.176	37.62
519.375	37.46
519.574	37.62
519.773	37.69
519.972	37.76
520.171	37.8
520.37	37.83
520.569	37.65
520.768	37.78
520.967	37.66
521.166	37.63
521.365	37.5
521.564	37.54
521.762	37.29
521.961	37.25
522.16	37.2
522.359	37.22
522.558	37.08
522.757	37.39
522.956	37.25
523.154	37.37
523.353	37.35
523.552	37.35
523.751	37.41
523.949	37.58
524.148	37.67
524.347	37.91
524.546	37.86
524.744	38.06
524.943	37.97
525.142	38.1
525.34	38.27
525.539	38.46
525.737	38.62
525.936	38.65
526.135	38.75
526.333	38.78
526.532	38.72
526.73	38.91
526.929	38.95
527.127	39.04
527.326	39.06
527.524	38.97
527.723	39
527.921	39.03
528.12	39.2
528.318	39.12
528.516	39.17
528.715	39.21
528.913	39.15
529.112	39.25
529.31	39.29
529.508	39.28
529.707	39.35
529.905	39.4
530.103	39.44
530.301	39.47
530.5	39.6
530.698	39.63
530.896	39.68
531.094	39.71
531.293	39.63
531.491	39.55
531.689	39.72
531.887	39.85
532.085	39.82
532.283	39.9
532.481	39.9
532.68	39.96
532.878	39.97
533.076	40.01
533.274	40.21
533.472	40.31
533.67	40.44
533.868	40.37
534.066	40.4
534.264	40.48
534.462	40.39
534.66	40.37
534.858	40.36
535.056	40.53
535.253	40.69
535.451	40.59
535.649	40.56
535.847	40.51
536.045	40.55
536.243	40.57
536.441	40.67
536.638	40.92
536.836	40.99
537.034	41.08
537.232	40.98
537.43	41.01
537.627	41.17
537.825	41.18
538.023	41.22
538.22	41.24
538.418	41.29
538.616	41.18
538.813	41.15
539.011	41.18
539.209	41.16
539.406	41.17
539.604	41.08
539.801	41.14
539.999	41.16
540.196	41.17
540.394	41.27
540.591	41.26
540.789	41.31
540.986	41.37
541.184	41.43
541.381	41.57
541.579	41.69
541.776	41.77
541.974	41.74
542.171	41.83
542.368	41.98
542.566	42.09
542.763	42.06
542.96	42.13
543.158	42.08
543.355	42.06
543.552	41.91
543.75	41.84
543.947	41.77
544.144	41.9
544.341	42
544.539	41.85
544.736	41.72
544.933	41.77
545.13	41.63
545.327	41.81
545.524	41.91
545.722	42.05
545.919	42.24
546.116	42.32
546.313	42.2
546.51	42.16
546.707	42.28
546.904	42.46
547.101	42.67
547.298	42.94
547.495	43
547.692	43.08
547.889	43.24
548.086	43.32
548.283	43.4
548.48	43.42
548.677	43.34
548.874	43.5
549.07	43.49
549.267	43.57
549.464	43.59
549.661	43.39
549.858	43.32
550.055	43.02
550.251	42.8
550.448	42.88
550.645	43.1
550.842	43.12
551.038	43.08
551.235	43.28
551.432	43.16
551.628	43.22
551.825	43.2
552.022	43.55
552.218	43.66
552.415	43.86
552.612	43.86
552.808	43.94
553.005	43.82
553.201	43.91
553.398	43.69
553.594	43.64
553.791	43.59
553.987	43.82
554.184	43.76
554.38	44.02
554.577	44.08
554.773	43.89
554.97	43.66
555.166	44.22
555.362	44.05
555.559	44.29
555.755	44.29
555.952	44.52
556.148	44.48
556.344	44.37
556.541	44.36
556.737	44.09
556.933	44.31
557.129	44.52
557.326	44.13
557.522	44.38
557.718	44.33
557.914	44.48
558.11	44.4
558.307	44.31
558.503	44.26
558.699	44.41
558.895	44.6
559.091	44.56
559.287	44.68
559.483	44.96
559.679	44.92
559.876	44.88
560.072	45.13
560.268	45.22
560.464	45.47
560.66	45.48
560.856	45.17
561.052	45.19
561.247	45.35
561.443	45.27
561.639	45.15
561.835	44.98
562.031	45.02
562.227	44.81
562.423	45.01
562.619	44.79
562.815	44.81
563.01	45.01
563.206	45.05
563.402	45.02
563.598	45.18
563.793	45.32
563.989	45.65
564.185	45.66
564.381	45.7
564.576	45.56
564.772	45.76
564.968	45.77
565.163	46
565.359	45.96
565.555	45.99
565.75	46.07
565.946	46.26
566.141	46.23
566.337	46.43
566.532	46.4
566.728	46.32
566.923	46.36
567.119	46.4
567.314	46.27
567.51	46.46
567.705	46.4
567.901	46.37
568.096	46.19
568.292	46.17
568.487	46.07
568.682	46.31
568.878	46.47
569.073	46.52
569.268	46.58
569.464	46.62
569.659	46.62
569.854	46.81
570.05	46.75
570.245	46.73
570.44	46.76
570.635	46.74
570.831	46.71
571.026	46.79
571.221	46.88
571.416	47.02
571.611	47.04
571.806	47.11
572.002	47.05
572.197	47.04
572.392	47.14
572.587	47.33
572.782	47.44
572.977	47.41
573.172	47.31
573.367	47.17
573.562	47.06
573.757	47.09
573.952	47.09
574.147	47.18
574.342	47.29
574.537	47.43
574.732	47.41
574.927	47.56
575.121	47.72
575.316	47.9
575.511	47.97
575.706	48.23
575.901	48.25
576.096	48.2
576.29	48.29
576.485	48.3
576.68	48.39
576.875	48.25
577.069	48.13
577.264	48.16
577.459	48.13
577.654	48.03
577.848	47.96
578.043	47.92
578.238	47.76
578.432	47.8
578.627	47.74
578.821	47.88
579.016	47.69
579.21	47.59
579.405	47.51
579.6	47.35
579.794	47.55
579.989	47.4
580.183	47.26
580.378	47.61
580.572	47.58
580.766	47.64
580.961	47.47
581.155	47.84
581.35	48.08
581.544	48.17
581.738	48.19
581.933	48.29
582.127	48.76
582.321	49.05
582.516	48.99
582.71	48.89
582.904	48.95
583.099	48.77
583.293	48.74
583.487	48.67
583.681	48.61
583.875	48.83
584.07	48.6
584.264	48.04
584.458	47.79
584.652	47.92
584.846	48.23
585.04	47.99
585.234	48.24
585.428	48.45
585.623	48.28
585.817	48.14
586.011	47.86
586.205	48.17
586.399	48.61
586.593	48.91
586.787	48.74
586.981	48.43
587.174	48.92
587.368	48.65
587.562	48.85
587.756	49.34
587.95	49.56
588.144	49.6
588.338	49.45
588.532	49.23
588.725	49.25
588.919	49.24
589.113	49.51
589.307	49.41
589.501	49.73
589.694	49.33
589.888	49.32
590.082	49.39
590.275	49.48
590.469	49.46
590.663	49.69
590.856	49.8
591.05	49.8
591.244	49.59
591.437	49.66
591.631	49.31
591.824	49.24
592.018	48.97
592.212	48.85
592.405	48.83
592.599	49.2
592.792	48.87
592.986	48.63
593.179	48.78
593.372	49.07
593.566	48.98
593.759	49.12
593.953	49.31
594.146	49.19
594.339	49
594.533	49.3
594.726	48.93
594.92	49.07
595.113	49.21
595.306	49.05
595.499	48.96
595.693	49.01
595.886	48.86
596.079	48.92
596.272	49.11
596.466	49.48
596.659	49.35
596.852	49.66
597.045	49.54
597.238	49.59
597.431	49.74
597.624	49.71
597.818	49.7
598.011	49.94
598.204	49.84
598.397	50.03
598.59	49.88
598.783	49.89
598.976	49.77
599.169	49.86
599.362	49.69
599.555	49.61
599.748	49.8
599.941	49.76
600.134	49.77
600.326	49.7
600.519	49.55
600.712	49.5
600.905	49.43
601.098	49.28
601.291	49.45
601.483	49.42
601.676	49.41
601.869	49.38
602.062	49.43
602.255	49.4
602.447	49.66
602.64	49.48
602.833	49.41
603.025	49.37
603.218	49.58
603.411	49.51
603.603	49.62
603.796	49.59
603.989	49.45
604.181	49.62
604.374	49.74
604.566	49.63
604.759	49.87
604.951	50.06
605.144	50.26
605.336	50.06
605.529	50.04
605.721	50.04
605.914	50.22
606.106	50.57
606.299	50.27
606.491	50.17
606.683	50.31
606.876	50.23
607.068	50.08
607.26	49.84
607.453	50.04
607.645	50.19
607.837	50.33
608.03	50.22
608.222	49.91
608.414	50.15
608.606	50.09
608.799	50.02
608.991	49.84
609.183	49.83
609.375	49.86
609.567	49.78
609.759	49.72
609.952	49.47
610.144	49.48
610.336	49.48
610.528	49.29
610.72	49.31
610.912	49.63
611.104	49.8
611.296	50.08
611.488	50.15
611.68	50.23
611.872	50.39
612.064	50.69
612.256	50.63
612.448	50.54
612.64	50.89
612.832	50.95
613.023	50.2
613.215	50.23
613.407	49.95
613.599	50.18
613.791	49.79
613.983	49.55
614.174	49.38
614.366	49.73
614.558	49.8
614.75	49.59
614.941	49.45
615.133	49.98
615.325	50.05
615.516	50
615.708	49.84
615.9	50.23
616.091	50.25
616.283	50.21
616.475	49.8
616.666	49.82
616.858	49.72
617.049	49.94
617.241	50.05
617.432	49.83
617.624	49.89
617.815	50.12
618.007	50.22
618.198	50.16
618.39	50.24
618.581	50.62
618.773	50.56
618.964	50.91
619.155	50.9
619.347	50.68
619.538	50.72
619.729	50.76
619.921	50.92
620.112	50.87
620.303	50.95
620.494	50.88
620.686	50.71
620.877	50.92
621.068	50.54
621.259	50.49
621.451	50.29
621.642	50.39
621.833	50.43
622.024	49.74
622.215	49.57
622.406	49.48
622.597	49.6
622.788	49.56
622.98	49.38
623.171	49.1
623.362	48.92
623.553	49.01
623.744	49.21
623.935	49.13
624.126	49.51
624.317	49.71
624.508	49.77
624.698	49.89
624.889	50
625.08	50.18
625.271	50.56
625.462	50.65
625.653	50.54
625.844	50.23
626.034	50.45
626.225	50.57
626.416	50.42
626.607	50.45
626.798	50.41
626.988	50.33
627.179	50.35
627.37	50.53
627.56	50.69
627.751	51.22
627.942	51.19
628.132	51.32
628.323	51.19
628.514	51.23
628.704	51.19
628.895	51.23
629.085	51.3
629.276	51.46
629.466	51.63
629.657	51.59
629.847	51.1
630.038	51.32
630.228	50.85
630.419	50.72
630.609	50.78
630.8	51.06
630.99	50.75
631.181	50.78
631.371	50.42
631.561	50.07
631.752	50.14
631.942	49.74
632.132	49.5
632.323	50.06
632.513	49.94
632.703	49.79
632.893	49.64
633.084	49.91
633.274	50.08
633.464	49.91
633.654	49.97
633.844	49.83
634.034	50.27
634.225	50.73
634.415	50.22
634.605	50.13
634.795	50.62
634.985	50.74
635.175	50.95
635.365	50.74
635.555	51.17
635.745	50.99
635.935	51.05
636.125	51.02
636.315	50.47
636.505	50.51
636.695	50.93
636.885	50.47
637.075	50.33
637.265	50.22
637.455	50.32
637.644	50.04
637.834	50.59
638.024	50.56
638.214	50.61
638.404	50.84
638.593	50.99
638.783	50.81
638.973	50.88
639.163	51.17
639.352	50.75
639.542	50.71
639.732	50.82
639.921	50.81
640.111	51.08
640.301	51.19
640.49	51.07
640.68	50.58
640.87	50.43
641.059	50.78
641.249	50.41
641.438	50.36
641.628	50.03
641.817	49.78
642.007	49.17
642.196	49.18
642.386	49.14
642.575	49.46
642.764	50
642.954	50.21
643.143	49.48
643.333	49.3
643.522	49.85
643.711	50.13
643.901	50.05
644.09	50.28
644.279	49.79
644.469	50.06
644.658	49.96
644.847	50.2
645.036	50.23
645.226	50.8
645.415	50.75
645.604	50.33
645.793	50.29
645.982	50.41
646.171	50.71
646.361	50.96
646.55	50.29
646.739	50.21
646.928	49.83
647.117	49.84
647.306	49.76
647.495	49.91
647.684	49.91
647.873	50.01
648.062	50.26
648.251	49.85
648.44	49.8
648.629	50.58
648.818	50.56
649.007	50.56
649.196	50.55
649.384	50.8
649.573	50.87
649.762	50.86
649.951	51.23
650.14	50.9
650.328	51
650.517	51.08
650.706	50.17
650.895	49.99
651.083	50.36
651.272	50.12
651.461	50.17
651.65	50.07
651.838	50.17
652.027	49.67
652.216	50.25
652.404	50.29
652.593	49.81
652.781	50.02
652.97	50.35
653.158	49.76
653.347	49.98
653.535	49.48
653.724	49.97
653.912	49.97
654.101	50.22
654.289	50.13
654.478	50.41
654.666	51.19
654.855	51.55
655.043	51.53
655.231	52.45
655.42	52.4
655.608	52.55
655.796	52.12
655.985	52.03
656.173	51.86
656.361	51.65
656.55	51.09
656.738	51
656.926	50.84
657.114	50.81
657.302	50.01
657.491	50.01
657.679	50.44
657.867	50.8
658.055	51.21
658.243	51.17
658.431	51.11
658.619	51.41
658.807	50.96
658.996	51.11
659.184	51.03
659.372	51.45
659.56	51.6
659.748	51.19
659.936	50.96
660.124	50.44
660.311	50.44
660.499	50.7
660.687	50.58
660.875	50.88
661.063	50.69
661.251	50.76
661.439	50.79
661.627	50.46
661.814	50.75
662.002	50.82
662.19	50.85
662.378	50.76
662.565	49.93
662.753	49.52
662.941	49.25
663.129	49.03
663.316	48.95
663.504	48.67
663.692	48.99
663.879	48.5
664.067	48.21
664.254	48.62
664.442	48.54
664.63	49.08
664.817	49.57
665.005	49.4
665.192	50.03
665.38	49.67
665.567	49.88
665.755	49.64
665.942	50.29
666.13	50.67
666.317	50.94
666.504	51.18
666.692	51.24
666.879	50.95
667.067	50.68
667.254	50.49
667.441	50.68
667.629	50.56
667.816	51
668.003	50.46
668.19	50.51
668.378	50.01
668.565	49.66
668.752	49.29
668.939	49.46
669.127	49.84
669.314	49.76
669.501	49.72
669.688	49.67
669.875	49.59
670.062	49.97
670.249	49.5
670.436	49.56
670.623	49.81
670.81	49.88
670.997	50.07
671.184	50.36
671.371	50.49
671.558	51.06
671.745	50.7
671.932	50.55
672.119	50.14
672.306	50.51
672.493	50.55
672.68	50.61
672.867	51.23
673.054	51.09
673.24	50.89
673.427	50.73
673.614	50.1
673.801	50.65
673.988	50.99
674.174	51.29
674.361	51.17
674.548	51.25
674.734	51.2
674.921	50.55
675.108	50.77
675.294	51.46
675.481	51.5
675.668	51.98
675.854	52.02
676.041	51.69
676.227	51.74
676.414	51.24
676.601	51.23
676.787	50.93
676.974	51.66
677.16	51.57
677.347	51.25
677.533	51.01
677.719	51.09
677.906	51.14
678.092	51.2
678.279	50.99
678.465	51.25
678.651	51.2
678.838	51.93
679.024	51.92
679.21	51.89
679.397	51.79
679.583	51.81
679.769	51.65
679.955	51.16
680.142	50.88
680.328	50.99
680.514	51.34
680.7	51.46
680.886	51.04
681.073	51.03
681.259	50.87
681.445	50.77
681.631	51.21
681.817	51.31
682.003	52.03
682.189	52.47
682.375	52.6
682.561	52.54
682.747	52.46
682.933	52.48
683.119	51.98
683.305	51.65
683.491	51.54
683.677	51.75
683.863	51.54
684.049	51.04
684.235	50.85
684.42	50.57
684.606	50.78
684.792	50.7
684.978	50.89
685.164	51.21
685.349	51.44
685.535	51.17
685.721	50.29
685.907	50.31
686.092	50.34
686.278	49.96
686.464	50.37
686.649	50.39
686.835	50.74
687.021	50.88
687.206	50.65
687.392	50.78
687.577	51.23
687.763	51.1
687.948	51.42
688.134	51.21
688.319	51.23
688.505	50.85
688.69	50.35
688.876	49.98
689.061	49.99
689.247	50.26
689.432	50.46
689.618	50.05
689.803	50.48
689.988	49.41
690.174	49.84
690.359	50.48
690.544	50.5
690.73	50.97
690.915	50.95
691.1	50.71
691.285	51.37
691.471	51.29
691.656	51.24
691.841	51.16
692.026	51.46
692.211	50.96
692.396	50.52
692.582	50
692.767	49.64
692.952	49.82
693.137	50.29
693.322	49.2
693.507	49.34
693.692	49.72
693.877	49.83
694.062	49.72
694.247	50.15
694.432	50.17
694.617	50.97
694.802	51.5
694.987	51.41
695.172	50.53
695.357	51.41
695.541	51.3
695.726	51.15
695.911	50.91
696.096	51.47
696.281	51.37
696.466	51.7
696.65	51.7
696.835	51.26
697.02	51.28
697.204	51.64
697.389	51.54
697.574	51.53
697.759	51.86
697.943	52.12
698.128	51.64
698.312	51.25
698.497	51.16
698.682	51.09
698.866	51.18
699.051	51.01
699.235	50.96
699.42	50.56
699.604	50.83
699.789	50.54
699.973	50.52
700.158	50.58
700.342	50.9
700.527	50.82
700.711	50.5
700.895	50.29
701.08	50.39
701.264	50.33
701.448	50.53
701.633	49.84
701.817	49.85
702.001	49.9
702.186	50.09
702.37	48.96
702.554	48.61
702.738	48.56
702.923	48.83
703.107	49.59
703.291	49.66
703.475	49.18
703.659	49.5
703.843	49.62
704.027	48.85
704.212	49.11
704.396	50.56
704.58	50.4
704.764	50.21
704.948	49.33
705.132	48.09
705.316	47.44
705.5	47.74
705.684	47.46
705.868	46.91
706.052	47.35
706.235	47.61
706.419	47.9
706.603	47.63
706.787	48.04
706.971	48.73
707.155	49.3
707.339	49.85
707.522	49.99
707.706	50.06
707.89	50.26
708.074	50.5
708.257	51.01
708.441	50.27
708.625	51.18
708.808	51.24
708.992	50.75
709.176	50.75
709.359	50.84
709.543	50.04
709.727	49.31
709.91	49.79
710.094	49.93
710.277	49.43
710.461	48.95
710.644	48.56
710.828	48.39
711.011	49.29
711.195	48.88
711.378	48.33
711.562	49.31
711.745	51.03
711.928	50.34
712.112	49.84
712.295	49.92
712.478	50.96
712.662	50.88
712.845	50.81
713.028	49.66
713.212	49.85
713.395	50.42
713.578	50.36
713.761	49.62
713.945	49.85
714.128	49.87
714.311	49.67
714.494	49.5
714.677	49.85
714.86	49.61
715.043	50.54
715.227	51.04
715.41	51.21
715.593	50.93
715.776	50.53
715.959	50.57
716.142	50.68
716.325	50.58
716.508	50.23
716.691	49.92
716.874	50.08
717.057	49.66
717.239	49.62
717.422	49.07
717.605	48.54
717.788	48.29
717.971	49.24
718.154	48.97
718.337	49.75
718.519	49.6
718.702	49.53
718.885	49.85
719.068	49.59
719.25	49.48
719.433	49.88
719.616	50.55
719.798	50.3
719.981	50.37
720.164	50.58
720.346	49.31
720.529	49.35
720.712	49.89
720.894	50.33
721.077	50.52
721.259	49.92
721.442	50.06
721.624	48.74
721.807	49.78
721.989	48.44
722.172	48.43
722.354	48.36
722.537	48.53
722.719	48.37
722.901	47.12
723.084	47.15
723.266	47.43
723.448	46.99
723.631	47.5
723.813	47.67
723.995	48.84
724.178	48.54
724.36	48.36
724.542	47.4
724.724	47.25
724.907	48.19
725.089	48.18
725.271	48.47
725.453	48.58
725.635	49.17
725.817	47.63
725.999	46.3
726.181	46.65
726.364	48.07
726.546	48.6
726.728	48.33
726.91	49.05
727.092	49.12
727.274	48.72
727.456	47.68
727.638	48.19
727.819	49.3
728.001	50.36
728.183	50.71
728.365	49.62
728.547	50.4
728.729	50.92
728.911	50.53
729.093	51.06
729.274	50.96
729.456	52.2
729.638	51.65
729.82	51.87
730.001	51.44
730.183	51.35
730.365	51.94
730.546	52.05
730.728	51.33
730.91	50.83
731.091	50.48
731.273	50.31
731.455	49.81
731.636	50.31
731.818	50.06
731.999	49.68
732.181	50.1
732.362	50.3
732.544	50.39
732.725	50.24
732.907	50.04
733.088	49.99
733.27	49.63
733.451	50.54
733.633	50.37
733.814	49.81
733.995	50.41
734.177	49.27
734.358	48.37
734.539	46.77
734.721	47.88
734.902	48.36
735.083	48.6
735.264	49.19
735.446	48.14
735.627	46.67
735.808	47.4
735.989	47.15
736.17	48.25
736.351	48.54
736.533	49.77
736.714	49.28
736.895	49.63
737.076	49.65
737.257	50.2
737.438	50.54
737.619	51.22
737.8	50.79
737.981	49.96
738.162	49.87
738.343	49.46
738.524	48.92
738.705	48.4
738.886	48.18
739.067	48.56
739.247	46.36
739.428	46.43
739.609	46.89
739.79	46.98
739.971	47.35
740.151	47.18
740.332	47.29
740.513	48.85
740.694	47.32
740.874	46.85
741.055	45.67
741.236	47.09
741.417	46.35
741.597	46.57
741.778	45.43
741.958	45.66
742.139	45.65
742.32	46.08
742.5	44.74
742.681	46.37
742.861	47.52
743.042	47.41
743.222	47.01
743.403	47.71
743.583	46.81
743.764	47.81
743.944	48.99
744.124	47.99
744.305	46.92
744.485	46.73
744.666	47.69
744.846	47.1
745.026	47.45
745.207	49.14
745.387	48.09
745.567	47.44
745.747	47.89
745.928	46.39
746.108	46.93
746.288	47.03
746.468	46.97
746.648	46.29
746.829	46.53
747.009	46.94
747.189	46.12
747.369	46.37
747.549	47.05
747.729	46.62
747.909	46
748.089	45.94
748.269	47.05
748.449	45.68
748.629	46.29
748.809	44.71
748.989	43.94
749.169	42.7
749.349	42.84
749.529	42.79
749.709	43.72
749.889	44.74
750.068	45.2
750.248	44.25
750.428	43.95
750.608	42.75
750.788	45.47
750.967	45.69
751.147	46.49
751.327	46.97
751.507	47.99
751.686	47.29
751.866	47.19
752.046	46.91
752.225	47.01
752.405	49.49
752.585	51.07
752.764	48.85
752.944	48.84
753.123	49.24
753.303	48.49
753.482	48
753.662	47.87
753.841	47.94
754.021	47.53
754.2	47.08
754.38	45.52
754.559	44.32
754.739	43.83
754.918	43.71
755.097	42.77
755.277	42.35
755.456	41.65
755.635	41.2
755.815	39.58
755.994	39.83
756.173	41.15
756.352	42.93
756.532	42.26
756.711	42.34
756.89	44.44
757.069	45.34
757.248	46.13
757.427	47.16
757.607	48.49
757.786	49.61
757.965	50.43
758.144	49.36
758.323	48.59
758.502	49.66
758.681	49.92
758.86	49.97
759.039	50.64
759.218	50.75
759.397	49.37
759.576	49.36
759.755	50.32
759.934	49.22
760.113	49.83
760.291	49.72
760.47	50.76
760.649	50.72
760.828	48.83
761.007	49.14
761.186	48.74
761.364	48.81
761.543	47.75
761.722	47.07
761.901	48.33
762.079	47.67
762.258	48.08
762.437	47.57
762.615	48.87
762.794	50.15
762.972	50.11
763.151	50.49
763.33	51.01
763.508	51.25
763.687	50.26
763.865	48.63
764.044	48.92
764.222	48.64
764.401	48.08
764.579	47.06
764.758	46.22
764.936	45.83
765.114	45.71
765.293	45.88
765.471	45.57
765.65	46.39
765.828	48.24
766.006	48.23
766.184	47.68
766.363	47.17
766.541	46.93
766.719	47.44
766.898	47.09
767.076	46.58
767.254	45.81
767.432	46.85
767.61	45.66
767.788	42.59
767.967	43.34
768.145	44.2
768.323	44.27
768.501	43.84
768.679	43.16
768.857	42.24
769.035	42.74
769.213	42.7
769.391	40.95
769.569	40.67
769.747	42.89
769.925	42.05
770.103	42.53
770.281	43.35
770.459	43.41
770.636	42.33
770.814	41.27
770.992	41.39
771.17	43.45
771.348	43.74
771.525	44.9
771.703	42.27
771.881	41.39
772.059	40.44
772.236	39.07
772.414	41.23
772.592	41.07
772.769	43.65
772.947	40.98
773.125	38.82
773.302	42.13
773.48	43.23
773.657	44.15
773.835	45.1
774.013	43.19
774.19	44.25
774.368	45.05
774.545	45.92
774.723	43.48
774.9	46.19
775.077	46.77
775.255	44.02
775.432	44.85
775.61	47.22
775.787	45.97
775.964	47.53
776.142	44.86
776.319	44.54
776.496	44.84
776.674	44.75
776.851	43.03
777.028	42.23
777.205	40.09
777.382	38.68
777.56	40.86
777.737	41.42
777.914	43.11
778.091	44.47
778.268	41.23
778.445	40.34
778.622	41.75
778.8	41.51
778.977	40.86
779.154	43.33
779.331	42.37
779.508	38.59
779.685	36.91
779.862	36.69
780.038	38.23
780.215	38.98
780.392	38.13
780.569	37.76
780.746	37.28
780.923	38.12
781.1	35.98
781.277	37.49
781.453	37.2
781.63	38.57
781.807	36.52
781.984	36.62
782.16	37.67
782.337	37.96
782.514	39.37
782.691	41.29
782.867	41.02
783.044	41.37
783.221	42.2
783.397	43.31
783.574	46.6
783.75	45.52
783.927	47.7
784.103	48.56
784.28	49.69
784.456	48.45
784.633	48.35
784.809	46.62
784.986	45.82
785.162	43.54
785.339	44.19
785.515	42.17
785.692	44.32
785.868	42.17
786.044	42.84
786.221	41.79
786.397	39.45
786.573	38.14
786.749	40.04
786.926	42.99
787.102	43.38
787.278	40.62
787.454	40.43
787.631	39.13
787.807	38.7
787.983	38.13
788.159	36.99
788.335	39.29
788.511	40.39
788.687	40.49
788.863	39.46
789.039	36.53
789.216	38.86
789.392	38.96
789.568	38.71
789.744	39.25
789.919	36.55
790.095	37.93
790.271	37.5
790.447	35.85
790.623	34.1
790.799	34.64
790.975	37.83
791.151	37.88
791.327	38.63
791.502	38.87
791.678	36.34
791.854	36.2
792.03	34.73
792.205	34.17
792.381	35.61
792.557	37.69
792.733	36.25
792.908	35.92
793.084	35.33
793.259	34.66
793.435	36.65
793.611	40.72
793.786	40.15
793.962	40.17
794.137	40.64
794.313	41.06
794.488	41.17
794.664	43.49
794.839	42.17
795.015	43.84
795.19	40.75
795.366	39.14
795.541	34.75
795.716	38.96
795.892	40.4
796.067	40.28
796.242	39.33
796.418	37.72
796.593	33.67
796.768	37.03
796.944	33.65
797.119	35.61
797.294	38.33
797.469	40.41
797.644	40.98
797.82	41.68
797.995	43.63
798.17	43.12
798.345	45
798.52	46.15
798.695	42.79
798.87	42.34
799.045	41.04
799.22	40.23
799.395	39.13
799.57	38.91
799.745	37.81
799.92	35.89
800.095	37.93
800.27	35.58
800.445	37.49
800.62	35.98
800.795	37.3
800.97	36.48
801.145	34.89
801.319	33.58
801.494	29.85
801.669	30.66
801.844	32.05
802.018	30.8
802.193	29.74
802.368	27.23
802.543	30.08
802.717	30.19
802.892	30.17
803.067	31.87
803.241	33.47
803.416	31.86
803.59	28.37
803.765	31.08
803.94	32.58
804.114	35.18
804.289	38.74
804.463	40.7
804.638	45.1
804.812	47.76
804.986	43.03
805.161	40.69
805.335	42.52
805.51	45.74
805.684	45.87
805.858	45.28
806.033	45.2
806.207	40.78
806.381	39.96
806.556	35.97
806.73	34.64
806.904	38.34
807.078	38.21
807.253	40.03
807.427	36.69
807.601	31.33
807.775	31.81
807.949	31.93
808.123	33.53
808.298	28.84
808.472	31.27
808.646	33.2
808.82	32.45
808.994	36.86
809.168	31.03
809.342	35.31
809.516	39.08
809.69	39.77
809.864	39.78
810.038	38.42
810.212	42.54
810.385	41.29
810.559	37.73
810.733	39.61
810.907	38.03
811.081	41.92
811.255	37.94
811.428	35.33
811.602	35.77
811.776	34.46
811.95	36.98
812.123	38.79
812.297	33.69
812.471	32.99
812.644	29.08
812.818	27.59
812.992	33.08
813.165	35.78
813.339	37.46
813.512	37.2
813.686	38.53
813.86	40.4
814.033	40.82
814.207	45.95
814.38	44.52
814.554	47.91
814.727	49.98
814.9	46.44
815.074	46.4
815.247	45.19
815.421	41.16
815.594	42.46
815.767	44.05
815.941	40.45
816.114	38.59
816.287	47.61
816.46	43.76
816.634	38.04
816.807	36.64
816.98	30.36
817.153	31.56
817.327	32.87
817.5	23.85
817.673	19.55
817.846	22.07
818.019	28.87
818.192	27.05
818.365	33.11
818.538	38.83
818.711	39.32
818.884	41.6
819.057	42.63
819.23	41.03
819.403	45.44
819.576	45.54
819.749	44.95
819.922	39.7
820.095	40.38
820.268	36.81
820.441	36.49
820.614	37.05
820.786	38.24
820.959	40.15
821.132	43.07
821.305	42.26
821.477	43.75
821.65	46.08
821.823	47.11
821.996	47.62
822.168	49.02
822.341	49.54
822.514	49.96
822.686	49.9
822.859	49.63
823.031	48.71
823.204	49.83
823.376	49.41
823.549	48.93
823.722	48.99
823.894	48.03
824.067	46.96
824.239	46.14
824.411	45.14
824.584	45.45
824.756	43.65
824.929	43.35
825.101	41.35
825.273	41.85
825.446	41.06
825.618	40.23
825.79	40.78
825.963	40.21
826.135	39.61
826.307	39.48
826.479	39.69
826.652	39.78
826.824	40.95
826.996	42.79
827.168	42.56
827.34	42.04
827.512	43.12
827.684	41.71
827.856	42.3
828.029	43.7
828.201	44.34
828.373	42.91
828.545	42.91
828.717	42.39
828.889	41.89
829.061	41.37
829.232	42.29
829.404	40.05
829.576	39.66
829.748	38.17
829.92	37.52
830.092	36.06
830.264	35.8
830.436	38.62
830.607	36.85
830.779	35.58
830.951	34.24
831.123	30.98
831.294	30.2
831.466	35.07
831.638	36.13
831.809	33.68
831.981	34.28
832.153	35.55
832.324	31.66
832.496	38.11
832.667	37.93
832.839	37.12
833.011	37.09
833.182	40.01
833.354	35.53
833.525	37.24
833.697	39.61
833.868	40.62
834.039	43.1
834.211	45.69
834.382	44.09
834.554	44.95
834.725	49.41
834.896	50.81
835.068	49.15
835.239	51.52
835.41	49.34
835.581	47.2
835.753	47.17
835.924	42.89
836.095	41.85
836.266	41.88
836.438	40.86
836.609	37.4
836.78	38.69
836.951	39.62
837.122	36.65
837.293	40.32
837.464	41.43
837.635	40.04
837.806	44.71
837.977	43.09
838.148	45.09
838.319	42.51
838.49	38.86
838.661	38.27
838.832	42.55
839.003	41.94
839.174	38.17
839.345	38.68
839.516	31.98
839.687	24.18
839.857	22.22
840.028	13.53
840.199	21.91
840.37	23.37
840.54	26.56
840.711	14.03
840.882	15.5
841.053	20.88
841.223	16.9
841.394	27.85
841.564	28.97
841.735	35.16
841.906	44.43
842.076	36.94
842.247	31.2
842.417	27.87
842.588	32.82
842.758	35.37
842.929	31.22
843.099	29.2
843.27	30.06
843.44	24.66
843.611	21.3
843.781	10.14
843.951	4.69
844.122	7.93
844.292	6.69
844.462	7.02
844.633	-7.8
844.803	-7.5
844.973	-14.09
845.144	-25.96
845.314	2.79
845.484	1.07
845.654	8.82
845.824	16.3
845.995	9.33
846.165	3.05
846.335	12.21
846.505	21.99
846.675	20.47
846.845	36.56
847.015	29.43
847.185	28.45
847.355	35.41
847.525	35.35
847.695	40.61
847.865	50.06
848.035	40.26
848.205	33.11
848.375	29.48
848.545	29.34
848.715	16.89
848.884	9.25
849.054	3.68
849.224	-19.34
849.394	-27.25
849.564	-37.79
849.733	-63.27
849.903	-45.28
850.073	-33.54
850.243	-17.77
850.412	-8.38
850.582	-8.34
850.752	2.07
850.921	2.49
851.091	5.78
851.26	10.56
851.43	10.82
851.599	3.13
851.769	14.79
851.939	10.68
852.108	2.66
852.278	-5.06
852.447	1.1
852.616	11.56
852.786	27.33
852.955	18.87
853.125	8.89
853.294	12.32
853.463	15.62
853.633	10.59
853.802	12.33
853.971	-11.97
854.141	-27.43
854.31	-16.32
854.479	-20.54
854.648	-31.55
854.818	-4.5
854.987	7.2
855.156	-3.88
855.325	0.4
855.494	3.45
855.663	16.33
855.832	28.76
856.001	39.07
856.171	38.33
856.34	39.85
856.509	32.85
856.678	14.87
856.847	15.71
857.016	23
857.185	30.12
857.353	32.48
857.522	39.63
857.691	18.46
857.86	8.44
858.029	8.58
858.198	3.37
858.367	18.9
858.535	23.16
858.704	18.01
858.873	17.44
859.042	12.15
859.21	0.65
859.379	-8.59
859.548	4.64
859.717	17.91
859.885	25.41
860.054	18.99
860.222	22.05
860.391	23.12
860.56	29.39
860.728	37.99
860.897	45.34
861.065	70.95
861.234	79.28
861.402	71.38
861.571	64.51
861.739	51.88
861.908	48.91
862.076	39.43
862.244	39.61
862.413	37.73
862.581	13.04
862.749	15.96
862.918	13.54
863.086	1.55
863.254	-14.69
863.423	-15.98
863.591	-19.73
863.759	-11.91
863.927	12.11
864.096	12.17
864.264	13.33
864.432	17.91
864.6	13.93
864.768	16.37
864.936	32.64
865.104	44.68
865.272	37.35
865.44	62.46
865.608	58.3
865.776	36.4
865.944	31.14
866.112	14.31
866.28	12.32
866.448	6.2
866.616	-31.45
866.784	-77.74
866.952	-81.72
867.12	-57.02
867.288	-84.93
867.455	-88.12
867.623	-110.62
867.791	-56.19
867.959	-40
868.127	-39.49
868.294	-42.28
868.462	-10.57
868.63	-6.2
868.797	-4.55
868.965	-2.24
869.133	-7.61
869.3	-4.89
869.468	2.44
869.636	-3.78
869.803	-6.5
869.971	-0.44
870.138	13.6
870.306	4.67
870.473	13.57
870.641	27.26
870.808	53.57
870.975	52.43
871.143	49.94
871.31	36.64
871.478	31.7
871.645	22.24
871.812	25.4
871.98	16.42
872.147	-2.27
872.314	-2.22
872.482	-14.01
872.649	-14.12
872.816	-1.58
872.983	-7.23
873.15	-2.12
873.318	-10.79
873.485	-16.87
873.652	-12.47
873.819	-15
873.986	-1.78
874.153	-8.43
874.32	-5.52
874.487	-19.11
874.654	-40.92
874.821	-44.23
874.988	-58.18
875.155	-53.1
875.322	-58.37
875.489	-86.08
875.656	-94.84
875.823	-67.67
875.99	-53.28
876.157	-60.43
876.324	-53.34
876.49	-41.91
876.657	-77.27
876.824	-79.39
876.991	-64.07
877.157	-20.7
877.324	-35.28
877.491	14.48
877.658	29.68
877.824	12.11
877.991	8.23
878.157	11.56
878.324	0.13
878.491	-4.08
878.657	5.28
878.824	17.86
878.99	0.48
879.157	10.3
879.323	5.95
879.49	-7.37
879.656	-3.66
879.823	-0.76
879.989	-38.59
880.156	-49.2
880.322	-14.87
880.488	-9.05
880.655	-25.42
880.821	13.75
880.987	26.02
881.154	14.57
881.32	14.96
881.486	16.77
881.652	24.04
881.819	28.78
881.985	37.19
882.151	36.93
882.317	39
882.483	38.26
882.649	35.91
882.816	32.25
882.982	28.5
883.148	31.72
883.314	35.82
883.48	38.52
883.646	36.73
883.812	35.99
883.978	34.12
884.144	33.4
884.31	35.52
884.476	36.3
884.642	38.7
884.807	45.89
884.973	44.19
885.139	44.27
885.305	41.09
885.471	41.89
885.637	37.64
885.802	41.74
885.968	40.49
886.134	38.61
886.3	30.87
886.465	32.98
886.631	29.74
886.797	26.31
886.962	19.99
887.128	18
887.293	16.7
887.459	28.89
887.625	26.45
887.79	26.48
887.956	25.82
888.121	33.11
888.287	28.73
888.452	20.71
888.618	26.91
888.783	31.82
