Data from 2937836_Reflection_3.txt Node
Date: Wed Jul 15 16:30:40 EDT 2015
User: robert
Spectrometer: USB4E03001
Autoset integration time: false
Trigger mode: 4
Integration Time (sec): 1.000000E-1
Scans to average: 10
Electric dark correction enabled: true
Nonlinearity correction enabled: false
Boxcar width: 5
Stray light correction enabled: false
XAxis mode: Wavelengths
Stop averaging: false
Number of Pixels in Spectrum: 3648
>>>>>Begin Spectral Data<<<<<
177.566	242.08
177.785	298.82
178.005	-174.91
178.225	2.21
178.445	57.97
178.665	185.82
178.885	78.48
179.105	110.08
179.324	84.26
179.544	81.33
179.764	91.45
179.984	29.29
180.204	87.01
180.423	158.79
180.643	180.03
180.863	171.05
181.083	295.89
181.302	-990.84
181.522	-1117.73
181.742	168.08
181.961	146.06
182.181	80.34
182.401	93.59
182.621	518.8
182.84	90.45
183.06	49.04
183.279	64.92
183.499	77.66
183.719	60.25
183.938	71.64
184.158	82.84
184.377	97.74
184.597	66.15
184.816	37.43
185.036	56.9
185.256	63.13
185.475	68.27
185.695	55.67
185.914	41.84
186.134	72.95
186.353	73.12
186.572	94.24
186.792	96.26
187.011	114.07
187.231	120.29
187.45	138.85
187.67	128.83
187.889	125.22
188.108	140.39
188.328	175.16
188.547	246.85
188.766	159.41
188.986	119.02
189.205	139.37
189.424	151.38
189.644	144.21
189.863	119.23
190.082	124.5
190.302	127.44
190.521	148.84
190.74	156.35
190.959	141.59
191.178	214.72
191.398	487.92
191.617	232.33
191.836	148.71
192.055	279.4
192.274	318.88
192.494	317.08
192.713	197.63
192.932	321.25
193.151	199.13
193.37	120.24
193.589	83.07
193.808	91.6
194.027	78.53
194.246	57.64
194.465	58.79
194.685	37.99
194.904	44.82
195.123	80.15
195.342	53.24
195.561	60.64
195.78	62.12
195.999	86.43
196.218	85.61
196.436	242
196.655	274.18
196.874	242.58
197.093	-3961.54
197.312	-192.38
197.531	280.93
197.75	-854.51
197.969	-233.81
198.188	-549.14
198.407	625.15
198.625	259.93
198.844	145.45
199.063	122.89
199.282	94.39
199.501	83.14
199.719	73.58
199.938	88.34
200.157	91.27
200.376	95.69
200.594	99
200.813	90.94
201.032	92.07
201.251	104.15
201.469	116.47
201.688	126.9
201.907	131.62
202.125	131.83
202.344	118.85
202.563	117.7
202.781	105.17
203	100.73
203.218	115.75
203.437	112.47
203.656	107.4
203.874	107.91
204.093	120.81
204.311	126.04
204.53	135.84
204.748	129.64
204.967	114.16
205.185	118.18
205.404	129.87
205.622	161.66
205.841	144.98
206.059	152.12
206.278	118.27
206.496	108.85
206.715	84.46
206.933	18.29
207.151	11.17
207.37	348.08
207.588	-61.79
207.806	104.79
208.025	-14.06
208.243	-22.25
208.461	155.52
208.68	432.04
208.898	538.85
209.116	561.39
209.335	263.97
209.553	369.67
209.771	326.82
209.989	271.18
210.208	205.94
210.426	157.45
210.644	256.19
210.862	207.07
211.081	164.63
211.299	128.66
211.517	127.42
211.735	115.1
211.953	111.56
212.171	123.99
212.39	110.27
212.608	118.04
212.826	132.75
213.044	137.64
213.262	121.8
213.48	137.17
213.698	166.73
213.916	150.51
214.134	149.17
214.352	159.29
214.57	135.68
214.788	153.97
215.006	191.93
215.224	159.43
215.442	130.27
215.66	144.26
215.878	132.08
216.096	138.57
216.314	139.3
216.532	154.45
216.75	138.03
216.968	118.88
217.185	102.18
217.403	61
217.621	82.5
217.839	79.16
218.057	50.74
218.275	68.22
218.492	65.28
218.71	62.3
218.928	49.8
219.146	49.5
219.363	76.62
219.581	100.27
219.799	123.15
220.017	135.58
220.234	117.39
220.452	113.53
220.67	97.89
220.887	103.13
221.105	109.34
221.323	97.09
221.54	88.93
221.758	97.66
221.976	103.18
222.193	98.14
222.411	64.21
222.629	66.12
222.846	80.21
223.064	54.88
223.281	48.27
223.499	58.55
223.716	59.45
223.934	56.02
224.151	45.84
224.369	34
224.586	34.49
224.804	43.19
225.021	51.16
225.239	47.72
225.456	61.06
225.674	62.52
225.891	52.28
226.108	46.36
226.326	41.04
226.543	40.88
226.76	44.46
226.978	34.75
227.195	30.26
227.413	22.75
227.63	25.89
227.847	18.69
228.064	15.15
228.282	15.09
228.499	18.52
228.716	20.63
228.934	18.8
229.151	14.69
229.368	14.77
229.585	14.69
229.802	13.26
230.02	10.26
230.237	11.06
230.454	10.28
230.671	11.86
230.888	9.82
231.105	8.52
231.323	10.01
231.54	13.52
231.757	14.28
231.974	13.65
232.191	22.81
232.408	21.77
232.625	24.55
232.842	31.3
233.059	25.53
233.276	34.1
233.493	31.46
233.71	19.05
233.927	18.45
234.144	17.05
234.361	22.04
234.578	21.92
234.795	25.96
235.012	24.79
235.229	21.36
235.446	22.05
235.663	19.27
235.879	24.78
236.096	31.87
236.313	30.68
236.53	38.8
236.747	40.9
236.964	37.29
237.181	35.33
237.397	36.59
237.614	35.44
237.831	41.18
238.048	39.31
238.264	35.34
238.481	33.81
238.698	32.04
238.915	31.03
239.131	24.86
239.348	23.33
239.565	20.29
239.781	19.34
239.998	20.2
240.215	16.71
240.431	14.35
240.648	18.39
240.865	19.47
241.081	22.71
241.298	20.12
241.514	19.72
241.731	20.49
241.947	20.15
242.164	18.71
242.38	18.79
242.597	20.36
242.814	22.17
243.03	22.19
243.246	21.86
243.463	20.26
243.679	20.23
243.896	21.7
244.112	23.33
244.329	24.73
244.545	23.77
244.762	22.2
244.978	18.61
245.194	15.64
245.411	13.56
245.627	12.88
245.843	11.04
246.06	11.99
246.276	11.37
246.492	10.08
246.709	9.28
246.925	10.64
247.141	11.36
247.357	11.98
247.574	11.72
247.79	10.92
248.006	11.53
248.222	12.29
248.439	12.26
248.655	11.43
248.871	11.15
249.087	12.4
249.303	11.27
249.519	9.73
249.736	10.53
249.952	12.63
250.168	12.52
250.384	12.38
250.6	10.72
250.816	9.76
251.032	9.6
251.248	11.5
251.464	9.45
251.68	11.24
251.896	12.65
252.112	12.12
252.328	12.25
252.544	13.73
252.76	10.83
252.976	11.82
253.192	12.97
253.408	13.83
253.624	12.36
253.84	13.8
254.056	12.87
254.272	13.77
254.487	12.04
254.703	13.9
254.919	12.59
255.135	14.32
255.351	13.31
255.567	14.47
255.782	17.07
255.998	15.63
256.214	12.96
256.43	15.42
256.646	15.06
256.861	15.4
257.077	12.42
257.293	11.82
257.508	11.45
257.724	11.74
257.94	9.33
258.155	6.56
258.371	7.05
258.587	8.25
258.802	7.15
259.018	7.66
259.234	7.75
259.449	6.57
259.665	7.53
259.88	8.01
260.096	8.5
260.312	8.12
260.527	9.2
260.743	9.33
260.958	9.66
261.174	9.91
261.389	10.29
261.605	11.22
261.82	13.48
262.036	14.36
262.251	15.17
262.466	13.81
262.682	15.37
262.897	14.75
263.113	14.14
263.328	13.74
263.543	13.34
263.759	14.24
263.974	13.98
264.189	12.82
264.405	9.21
264.62	8.45
264.835	9.64
265.051	9.7
265.266	12.93
265.481	15.26
265.696	15.07
265.912	17.66
266.127	15.49
266.342	12.6
266.557	12.84
266.773	13.58
266.988	13.06
267.203	13.66
267.418	13.4
267.633	11.62
267.848	11.89
268.064	11.77
268.279	12.4
268.494	12.52
268.709	15.22
268.924	13.92
269.139	13.61
269.354	13.41
269.569	12.54
269.784	12.56
269.999	11.5
270.214	10.72
270.429	11.31
270.644	10.93
270.859	10.7
271.074	10.01
271.289	11.17
271.504	13.56
271.719	14.21
271.934	13.45
272.149	13.62
272.363	14.76
272.578	15.41
272.793	15.32
273.008	13.35
273.223	13.83
273.438	14.1
273.653	12.96
273.867	11.56
274.082	10.95
274.297	12.82
274.512	11.4
274.726	10.83
274.941	9.6
275.156	8
275.371	8.26
275.585	8.72
275.8	7.25
276.015	8.44
276.229	7.06
276.444	7.42
276.659	7.54
276.873	9.74
277.088	8.55
277.302	8.56
277.517	10.52
277.732	10.13
277.946	8.13
278.161	9.22
278.375	6.54
278.59	8.04
278.804	7.82
279.019	7.82
279.233	6.47
279.448	7.06
279.662	7.46
279.877	7.09
280.091	9.34
280.306	10.85
280.52	10.81
280.735	11.62
280.949	13.26
281.163	14.25
281.378	14.01
281.592	14.17
281.806	14.42
282.021	14.95
282.235	15.39
282.449	14.13
282.664	12.52
282.878	12.32
283.092	14.28
283.307	14.9
283.521	13.55
283.735	13.99
283.949	13.92
284.164	13.21
284.378	12.3
284.592	11.51
284.806	11.68
285.02	11.56
285.234	11.06
285.449	9.25
285.663	7.88
285.877	9.73
286.091	8.73
286.305	8.8
286.519	9.25
286.733	8.26
286.947	7.61
287.161	7.07
287.375	7.4
287.589	8.11
287.803	10.26
288.017	8.99
288.231	7.76
288.445	8.67
288.659	10.43
288.873	11.18
289.087	13.09
289.301	13.92
289.515	13.8
289.729	14.62
289.943	14.66
290.157	13.39
290.371	14.68
290.584	15.08
290.798	14.97
291.012	14.32
291.226	13.52
291.44	12.1
291.654	10.63
291.867	9.96
292.081	10.48
292.295	10.56
292.509	11.53
292.722	11.97
292.936	11.42
293.15	10.48
293.364	9.82
293.577	10.18
293.791	12.82
294.005	14.88
294.218	16.18
294.432	14.92
294.645	15.69
294.859	14.9
295.073	14.65
295.286	15.25
295.5	16.38
295.713	16.46
295.927	16.76
296.14	15.1
296.354	13.49
296.568	14.83
296.781	14.68
296.994	14.25
297.208	13.83
297.421	13.46
297.635	12.48
297.848	12.1
298.062	11.75
298.275	13.02
298.489	13.19
298.702	14.43
298.915	12.3
299.129	12.79
299.342	13.31
299.555	12.74
299.769	14.56
299.982	15.57
300.195	14.97
300.409	14.38
300.622	11.36
300.835	12.6
301.048	12.64
301.262	14.35
301.475	15.62
301.688	15.31
301.901	17.59
302.115	14.67
302.328	12.54
302.541	13.57
302.754	15.33
302.967	16.81
303.18	15.7
303.393	16.75
303.607	17.06
303.82	16.98
304.033	15.57
304.246	14.96
304.459	17.25
304.672	19.08
304.885	18.85
305.098	18.05
305.311	18.12
305.524	18.6
305.737	18.67
305.95	18.12
306.163	17.79
306.376	19.04
306.589	19.71
306.802	19.54
307.015	20.77
307.228	22.08
307.44	22.98
307.653	23.15
307.866	23.35
308.079	23.31
308.292	22.08
308.505	22.96
308.718	22.57
308.93	21.63
309.143	20.73
309.356	20.62
309.569	19.91
309.781	19.93
309.994	18.77
310.207	17.75
310.42	17.35
310.632	18.45
310.845	17.64
311.058	17.74
311.27	17.95
311.483	17.88
311.696	17.34
311.908	17.79
312.121	16.49
312.333	16.88
312.546	17.55
312.759	17.39
312.971	16.5
313.184	15.07
313.396	16.02
313.609	15.38
313.821	14.6
314.034	14.73
314.246	14.46
314.459	14.85
314.671	15.85
314.884	16.8
315.096	17.02
315.309	16.8
315.521	17.7
315.733	16.78
315.946	15.87
316.158	16.09
316.371	15.78
316.583	14.21
316.795	14.91
317.008	14.87
317.22	13.35
317.432	12.15
317.644	13.44
317.857	15.22
318.069	16.4
318.281	20.02
318.494	19.53
318.706	19.91
318.918	20.71
319.13	19.3
319.342	17.93
319.555	19.2
319.767	20.57
319.979	21.01
320.191	19.58
320.403	18.01
320.615	14.62
320.827	16.48
321.039	16.58
321.252	17.34
321.464	17.73
321.676	18.61
321.888	17.89
322.1	18.05
322.312	17.69
322.524	18.91
322.736	20.13
322.948	21.38
323.16	20.23
323.372	20.48
323.584	20.79
323.796	20.4
324.007	19.12
324.219	19.51
324.431	20.84
324.643	19.63
324.855	18.58
325.067	18.45
325.279	18.92
325.491	19.69
325.702	19.5
325.914	19.7
326.126	21.09
326.338	22.17
326.55	23.04
326.761	21.06
326.973	23.59
327.185	23.58
327.396	23.51
327.608	23.38
327.82	24.69
328.032	24.01
328.243	23.87
328.455	24.8
328.666	26.41
328.878	27.29
329.09	29.09
329.301	29.23
329.513	31.03
329.725	31.4
329.936	31.27
330.148	30.2
330.359	31.68
330.571	32.04
330.782	31.63
330.994	31.73
331.205	31.49
331.417	32.87
331.628	32.51
331.84	33.97
332.051	34.44
332.262	37.29
332.474	38.29
332.685	40.27
332.897	40.97
333.108	43.76
333.319	44.41
333.531	45.04
333.742	44.92
333.953	45.85
334.165	46.42
334.376	46.57
334.587	46.97
334.799	48.46
335.01	48.52
335.221	49.5
335.432	49.31
335.644	48.64
335.855	48.39
336.066	48.66
336.277	48.74
336.488	48.41
336.7	50.43
336.911	50.87
337.122	51.48
337.333	51.48
337.544	50.07
337.755	49.62
337.966	51.06
338.177	52.51
338.388	52.04
338.599	52.13
338.811	52.98
339.022	52.26
339.233	51.85
339.444	52.06
339.655	53.17
339.866	55.07
340.076	54.3
340.287	54.38
340.498	54.24
340.709	55.21
340.92	57.05
341.131	57.36
341.342	57.88
341.553	59.31
341.764	58.91
341.975	57.83
342.185	57.88
342.396	59.82
342.607	60.87
342.818	62.16
343.029	61.29
343.239	59.06
343.45	58.85
343.661	57.72
343.872	56.38
344.082	55.9
344.293	55.69
344.504	55.3
344.714	54.85
344.925	55.23
345.136	53.77
345.346	55.81
345.557	57.17
345.768	56.79
345.978	57.73
346.189	57.82
346.399	58.57
346.61	58.7
346.821	59.09
347.031	59.25
347.242	58.24
347.452	59.78
347.663	59.37
347.873	59.29
348.084	59.08
348.294	58.54
348.504	58.44
348.715	58.76
348.925	60.04
349.136	59.26
349.346	58.94
349.557	59.23
349.767	58.53
349.977	57.64
350.188	58.26
350.398	58.94
350.608	60.21
350.819	60.61
351.029	60.12
351.239	59.59
351.449	60.14
351.66	58.88
351.87	58.37
352.08	58.01
352.29	58.76
352.501	57.8
352.711	57.44
352.921	58.06
353.131	57.37
353.341	57.38
353.552	57.61
353.762	57.32
353.972	58.07
354.182	59.33
354.392	60.34
354.602	60.16
354.812	60.03
355.022	60.82
355.232	59.3
355.442	59.15
355.652	59.59
355.862	58.88
356.072	60.94
356.282	61.19
356.492	59.58
356.702	59.06
356.912	58.65
357.122	59
357.332	58.87
357.542	58.83
357.752	59.48
357.962	59.02
358.171	59.01
358.381	57.57
358.591	56.85
358.801	56.95
359.011	56.33
359.221	56.35
359.43	57.05
359.64	56.29
359.85	56.89
360.06	56.74
360.269	55.92
360.479	56.7
360.689	56.53
360.899	57.68
361.108	58.14
361.318	58.81
361.528	58.46
361.737	57.83
361.947	58.26
362.156	57.84
362.366	58.17
362.576	58.5
362.785	57.49
362.995	57.66
363.204	57.92
363.414	56.98
363.623	56.74
363.833	56.75
364.042	57.17
364.252	56.51
364.461	56.66
364.671	55.91
364.88	56.54
365.09	57.38
365.299	56.84
365.509	55.53
365.718	56.55
365.927	55.55
366.137	54.85
366.346	54.42
366.555	54.49
366.765	53.99
366.974	54.28
367.183	54.31
367.393	53.93
367.602	53.35
367.811	53.37
368.021	53.56
368.23	54.59
368.439	54.83
368.648	54.64
368.857	54.79
369.067	53.7
369.276	52.38
369.485	51.59
369.694	51.72
369.903	52.88
370.112	53.11
370.321	53.13
370.531	52.12
370.74	52.02
370.949	52.36
371.158	51.92
371.367	52.29
371.576	53.35
371.785	52.93
371.994	52.88
372.203	52.5
372.412	51.88
372.621	51.12
372.83	51.07
373.039	51.74
373.248	50.82
373.457	50.71
373.666	51.03
373.874	49.87
374.083	50.43
374.292	50.97
374.501	50.83
374.71	51.15
374.919	51.72
375.128	51.61
375.336	50.71
375.545	50.7
375.754	50.28
375.963	50.39
376.171	51.44
376.38	50.19
376.589	49.55
376.798	49.77
377.006	49.64
377.215	48.54
377.424	48.82
377.632	48.43
377.841	48.4
378.05	48.22
378.258	47.48
378.467	46.54
378.675	46.78
378.884	46.48
379.093	45.94
379.301	45.78
379.51	45.74
379.718	45.21
379.927	45.76
380.135	45.68
380.344	46.21
380.552	45.96
380.761	46.16
380.969	46.06
381.177	46.3
381.386	45.6
381.594	45.49
381.803	45.33
382.011	45.41
382.219	44.8
382.428	44.42
382.636	43.48
382.845	43.62
383.053	43.18
383.261	43.04
383.469	42.67
383.678	42.71
383.886	42.56
384.094	42.66
384.302	41.71
384.511	42.08
384.719	42.18
384.927	42.36
385.135	42.32
385.343	42.31
385.552	41.8
385.76	41.51
385.968	40.82
386.176	40.53
386.384	40.37
386.592	40.72
386.8	40.12
387.008	39.76
387.216	39.68
387.424	39.81
387.633	39.85
387.841	40.1
388.049	39.95
388.257	40.51
388.465	40.05
388.672	39.61
388.88	39.2
389.088	39.4
389.296	39.2
389.504	38.87
389.712	38.31
389.92	37.82
390.128	37.65
390.336	37.31
390.544	36.93
390.751	36.81
390.959	36.86
391.167	36.78
391.375	36.3
391.583	36.58
391.79	36.73
391.998	36.44
392.206	36.18
392.414	36.36
392.621	36.66
392.829	36.67
393.037	37.07
393.244	36.8
393.452	36.73
393.66	36.78
393.867	36.7
394.075	36.63
394.283	36.93
394.49	36.69
394.698	36.49
394.905	35.94
395.113	35.75
395.32	35.5
395.528	35.66
395.735	36.18
395.943	36.28
396.15	35.91
396.358	35.44
396.565	35.46
396.773	35.58
396.98	35.88
397.188	35.94
397.395	35.85
397.602	35.83
397.81	35.83
398.017	35.51
398.225	35.18
398.432	35.15
398.639	35.49
398.847	35.14
399.054	35.47
399.261	34.78
399.468	34.76
399.676	35.34
399.883	35.45
400.09	35.24
400.297	35.06
400.505	35.15
400.712	35.53
400.919	35.16
401.126	35.27
401.333	35.37
401.54	35.66
401.748	35.89
401.955	35.37
402.162	35.16
402.369	35.69
402.576	35.79
402.783	35.9
402.99	35.51
403.197	35.95
403.404	36.05
403.611	35.84
403.818	35.79
404.025	35.58
404.232	35.8
404.439	35.91
404.646	35.42
404.853	35.6
405.06	35.39
405.267	35.5
405.474	35.26
405.681	35.35
405.887	35.33
406.094	35.43
406.301	35.55
406.508	35.62
406.715	35.49
406.922	35.48
407.128	35.46
407.335	35.61
407.542	35.19
407.749	35.08
407.955	34.57
408.162	34.66
408.369	34.56
408.575	34.7
408.782	34.36
408.989	34.08
409.195	34.31
409.402	34.16
409.609	34.04
409.815	34.28
410.022	34.48
410.228	34.63
410.435	34.68
410.642	34.45
410.848	34.41
411.055	34.76
411.261	34.92
411.468	34.7
411.674	34.54
411.881	34.85
412.087	34.74
412.294	34.85
412.5	35.04
412.706	34.92
412.913	35.03
413.119	35.15
413.326	34.54
413.532	34.78
413.738	34.77
413.945	34.79
414.151	34.56
414.357	34.82
414.564	34.41
414.77	34.39
414.976	34.12
415.182	34.32
415.389	34.28
415.595	34.43
415.801	34.47
416.007	34.77
416.214	34.33
416.42	34.16
416.626	34.06
416.832	34.2
417.038	34.09
417.244	33.97
417.45	33.76
417.657	33.34
417.863	33.51
418.069	33.34
418.275	32.95
418.481	33.14
418.687	33.5
418.893	33.25
419.099	33.12
419.305	33.31
419.511	33.31
419.717	33.3
419.923	33.38
420.129	33.34
420.335	33.3
420.541	33.28
420.746	33.31
420.952	33.07
421.158	33.03
421.364	33.04
421.57	32.88
421.776	32.94
421.982	33.11
422.187	33.19
422.393	33.1
422.599	32.95
422.805	33.16
423.01	33.06
423.216	32.91
423.422	32.97
423.628	32.98
423.833	33.01
424.039	33.01
424.245	32.74
424.45	32.64
424.656	32.58
424.862	32.68
425.067	32.42
425.273	32.49
425.478	32.59
425.684	32.53
425.889	32.46
426.095	32.26
426.301	32.3
426.506	32.55
426.712	32.35
426.917	32.46
427.123	32.34
427.328	32.47
427.533	32.39
427.739	32.54
427.944	32.77
428.15	32.88
428.355	32.98
428.561	32.91
428.766	32.73
428.971	32.86
429.177	32.73
429.382	32.69
429.587	32.8
429.793	32.71
429.998	32.52
430.203	32.11
430.408	31.82
430.614	31.92
430.819	31.93
431.024	31.66
431.229	31.74
431.434	31.78
431.64	32.18
431.845	32
432.05	32.09
432.255	32.05
432.46	32.31
432.665	32.43
432.87	32.32
433.076	32.15
433.281	32.26
433.486	32.35
433.691	32.44
433.896	32.18
434.101	32.24
434.306	32.42
434.511	32.52
434.716	32.6
434.921	32.51
435.126	32.63
435.331	32.82
435.535	32.76
435.74	32.87
435.945	32.75
436.15	32.7
436.355	32.57
436.56	32.39
436.765	32.2
436.97	32.15
437.174	32.23
437.379	32.36
437.584	32.32
437.789	32.64
437.993	32.22
438.198	32.33
438.403	32.33
438.608	32.4
438.812	32.3
439.017	32.54
439.222	32.48
439.426	32.5
439.631	32.09
439.836	31.99
440.04	31.91
440.245	32.09
440.45	32.08
440.654	32.16
440.859	32.11
441.063	32.2
441.268	32.17
441.472	32.21
441.677	32.3
441.881	32.37
442.086	32.35
442.29	32.15
442.495	32.17
442.699	32.22
442.904	32.22
443.108	32.19
443.312	32.3
443.517	32.18
443.721	32.04
443.925	31.96
444.13	32.03
444.334	32.12
444.538	32.26
444.743	32.2
444.947	32.24
445.151	32.15
445.356	32.33
445.56	32.36
445.764	32.35
445.968	32.31
446.173	32.26
446.377	32.29
446.581	32.39
446.785	32.37
446.989	32.54
447.193	32.32
447.398	32.37
447.602	32.22
447.806	32.14
448.01	32.18
448.214	32.17
448.418	32.11
448.622	32.15
448.826	32.06
449.03	31.99
449.234	31.63
449.438	31.67
449.642	31.66
449.846	31.7
450.05	31.56
450.254	31.46
450.458	31.52
450.662	31.53
450.866	31.69
451.069	31.49
451.273	31.52
451.477	31.61
451.681	31.57
451.885	31.52
452.089	31.58
452.292	31.61
452.496	31.75
452.7	31.85
452.904	32.02
453.107	31.78
453.311	31.8
453.515	31.84
453.719	31.96
453.922	31.99
454.126	31.95
454.33	32.09
454.533	32.23
454.737	32.1
454.94	31.96
455.144	31.82
455.348	31.79
455.551	32.08
455.755	32.01
455.958	32.03
456.162	32.1
456.365	32.09
456.569	32.01
456.772	31.97
456.976	31.92
457.179	31.94
457.383	31.83
457.586	32.06
457.79	31.63
457.993	31.6
458.196	31.56
458.4	31.57
458.603	31.45
458.807	31.31
459.01	31.32
459.213	31.56
459.417	31.63
459.62	31.65
459.823	31.62
460.026	31.69
460.23	31.75
460.433	31.56
460.636	31.57
460.839	31.93
461.042	32.07
461.246	32.02
461.449	31.93
461.652	31.9
461.855	32
462.058	31.87
462.261	31.95
462.464	31.84
462.668	31.98
462.871	31.92
463.074	31.55
463.277	31.44
463.48	31.53
463.683	31.28
463.886	31.34
464.089	31.29
464.292	31.37
464.495	31.54
464.698	31.75
464.901	31.97
465.104	32.2
465.306	32.21
465.509	32.27
465.712	32.36
465.915	32.44
466.118	32.32
466.321	32.38
466.524	32.28
466.726	32.12
466.929	32.08
467.132	32.14
467.335	32.03
467.538	32.11
467.74	32.08
467.943	31.86
468.146	31.91
468.348	32.1
468.551	31.99
468.754	32.07
468.956	32.17
469.159	32.22
469.362	32.1
469.564	31.91
469.767	31.94
469.969	31.72
470.172	32.06
470.375	32.14
470.577	32.17
470.78	32.55
470.982	32.62
471.185	32.55
471.387	32.4
471.59	32.4
471.792	32.6
471.995	32.6
472.197	32.78
472.399	32.73
472.602	32.69
472.804	32.65
473.007	32.48
473.209	32.5
473.411	32.75
473.614	32.69
473.816	32.64
474.018	32.64
474.22	32.8
474.423	32.98
474.625	32.81
474.827	32.81
475.03	32.72
475.232	32.78
475.434	32.66
475.636	32.4
475.838	32.61
476.04	32.62
476.243	32.58
476.445	32.39
476.647	32.19
476.849	32.2
477.051	32.36
477.253	32.39
477.455	32.4
477.657	32.47
477.859	32.42
478.061	32.38
478.263	32.47
478.465	32.35
478.667	32.42
478.869	32.37
479.071	32.24
479.273	32
479.475	32.01
479.677	31.99
479.879	32.12
480.081	32.26
480.283	32.33
480.485	32.33
480.686	32.59
480.888	32.7
481.09	32.84
481.292	32.78
481.494	32.76
481.695	32.82
481.897	32.86
482.099	32.61
482.301	32.74
482.502	32.63
482.704	32.54
482.906	32.43
483.107	32.34
483.309	32.31
483.511	32.4
483.712	32.4
483.914	32.35
484.115	32.33
484.317	32.31
484.519	32.28
484.72	32.32
484.922	32.36
485.123	32.42
485.325	32.38
485.526	32.37
485.728	32.32
485.929	32.34
486.131	32.36
486.332	32.35
486.534	32.43
486.735	32.38
486.936	32.38
487.138	32.29
487.339	32.2
487.541	32.21
487.742	32.19
487.943	32.18
488.144	32.25
488.346	32.26
488.547	32.29
488.748	32.29
488.95	32.29
489.151	32.28
489.352	32.37
489.553	32.45
489.755	32.57
489.956	32.63
490.157	32.71
490.358	32.6
490.559	32.58
490.76	32.63
490.961	32.61
491.163	32.57
491.364	32.53
491.565	32.48
491.766	32.39
491.967	32.42
492.168	32.35
492.369	32.37
492.57	32.41
492.771	32.39
492.972	32.28
493.173	32.36
493.374	32.39
493.575	32.43
493.776	32.51
493.976	32.45
494.177	32.48
494.378	32.58
494.579	32.64
494.78	32.74
494.981	32.73
495.182	32.8
495.382	32.65
495.583	32.6
495.784	32.53
495.985	32.47
496.185	32.72
496.386	32.57
496.587	32.68
496.788	32.67
496.988	32.58
497.189	32.55
497.39	32.58
497.59	32.73
497.791	32.79
497.992	32.83
498.192	32.78
498.393	32.71
498.593	32.76
498.794	32.76
498.994	32.81
499.195	32.84
499.395	32.92
499.596	33
499.796	32.97
499.997	32.93
500.197	32.9
500.398	33.13
500.598	33.1
500.799	33.25
500.999	33.09
501.199	33.07
501.4	33.13
501.6	33.31
501.801	33.35
502.001	33.27
502.201	33.28
502.402	33.52
502.602	33.59
502.802	33.53
503.002	33.46
503.203	33.65
503.403	33.68
503.603	33.59
503.803	33.6
504.003	33.36
504.204	33.44
504.404	33.31
504.604	33.18
504.804	33.13
505.004	33.23
505.204	33.29
505.404	33.25
505.604	33.32
505.804	33.48
506.005	33.33
506.205	33.47
506.405	33.48
506.605	33.77
506.805	33.92
507.005	33.87
507.204	34.04
507.404	33.97
507.604	34.1
507.804	34.04
508.004	34
508.204	34.24
508.404	34.33
508.604	34.62
508.804	34.69
509.003	34.73
509.203	34.97
509.403	35.03
509.603	35.2
509.803	35.2
510.002	35.14
510.202	35.33
510.402	35.3
510.602	35.31
510.801	35.32
511.001	35.26
511.201	35.22
511.4	35.15
511.6	35.14
511.8	35.17
511.999	35.31
512.199	35.43
512.398	35.34
512.598	35.31
512.797	35.47
512.997	35.56
513.197	35.83
513.396	35.95
513.596	36.19
513.795	36.28
513.994	36.39
514.194	36.47
514.393	36.8
514.593	36.89
514.792	36.86
514.992	36.92
515.191	36.9
515.39	36.9
515.59	37.13
515.789	37.11
515.988	37.26
516.188	37.18
516.387	37.24
516.586	37.2
516.786	37.4
516.985	37.71
517.184	37.71
517.383	37.81
517.582	37.89
517.782	37.89
517.981	37.81
518.18	37.81
518.379	37.99
518.578	38.03
518.777	38.01
518.976	37.97
519.176	38.05
519.375	38.1
519.574	38.05
519.773	38.02
519.972	38.07
520.171	38.24
520.37	38.28
520.569	38.21
520.768	38.34
520.967	38.58
521.166	38.73
521.365	38.78
521.564	38.75
521.762	38.95
521.961	39.16
522.16	39.34
522.359	39.23
522.558	39.27
522.757	39.49
522.956	39.31
523.154	39.18
523.353	39.19
523.552	39.25
523.751	39.59
523.949	39.64
524.148	39.66
524.347	39.68
524.546	39.82
524.744	40.04
524.943	39.97
525.142	40.22
525.34	40.34
525.539	40.49
525.737	40.56
525.936	40.52
526.135	40.56
526.333	40.65
526.532	40.5
526.73	40.7
526.929	40.78
527.127	40.92
527.326	40.98
527.524	41.06
527.723	41.09
527.921	41.13
528.12	41.22
528.318	41.22
528.516	41.26
528.715	41.44
528.913	41.5
529.112	41.54
529.31	41.58
529.508	41.66
529.707	41.74
529.905	41.82
530.103	41.91
530.301	41.96
530.5	42.06
530.698	42.15
530.896	42.07
531.094	42.04
531.293	42.06
531.491	42.22
531.689	42.27
531.887	42.21
532.085	42.25
532.283	42.39
532.481	42.47
532.68	42.62
532.878	42.76
533.076	42.84
533.274	42.91
533.472	42.96
533.67	43
533.868	42.92
534.066	43.04
534.264	43.04
534.462	43.1
534.66	43.14
534.858	43.11
535.056	43.06
535.253	43.26
535.451	43.21
535.649	43.32
535.847	43.33
536.045	43.46
536.243	43.47
536.441	43.56
536.638	43.54
536.836	43.55
537.034	43.59
537.232	43.56
537.43	43.65
537.627	43.76
537.825	43.79
538.023	43.85
538.22	43.96
538.418	44.01
538.616	44.05
538.813	44.05
539.011	44.09
539.209	44.27
539.406	44.25
539.604	44.24
539.801	44.41
539.999	44.43
540.196	44.42
540.394	44.31
540.591	44.36
540.789	44.42
540.986	44.57
541.184	44.65
541.381	44.67
541.579	44.69
541.776	44.63
541.974	44.67
542.171	44.68
542.368	44.7
542.566	44.8
542.763	44.87
542.96	44.9
543.158	44.84
543.355	44.83
543.552	44.86
543.75	44.89
543.947	44.98
544.144	44.96
544.341	44.87
544.539	44.91
544.736	44.84
544.933	44.92
545.13	44.94
545.327	44.96
545.524	44.92
545.722	44.76
545.919	44.85
546.116	44.95
546.313	44.91
546.51	45
546.707	45.1
546.904	45.23
547.101	45.32
547.298	45.31
547.495	45.27
547.692	45.29
547.889	45.4
548.086	45.42
548.283	45.42
548.48	45.44
548.677	45.42
548.874	45.25
549.07	45.32
549.267	45.05
549.464	45.13
549.661	45.17
549.858	45.13
550.055	45.38
550.251	45.57
550.448	45.72
550.645	45.94
550.842	46.15
551.038	46.22
551.235	45.96
551.432	46.02
551.628	46.18
551.825	46.18
552.022	46.27
552.218	46.19
552.415	46.19
552.612	45.97
552.808	45.94
553.005	45.99
553.201	46.16
553.398	46.23
553.594	46.23
553.791	46.13
553.987	46.22
554.184	46.42
554.38	46.44
554.577	46.44
554.773	46.43
554.97	46.45
555.166	46.45
555.362	46.4
555.559	46.84
555.755	46.88
555.952	46.95
556.148	46.79
556.344	46.68
556.541	46.48
556.737	46.68
556.933	46.97
557.129	46.99
557.326	46.9
557.522	46.98
557.718	46.82
557.914	46.7
558.11	46.72
558.307	46.82
558.503	46.83
558.699	47.02
558.895	46.82
559.091	46.72
559.287	46.77
559.483	46.85
559.679	46.93
559.876	46.95
560.072	47.29
560.268	47.37
560.464	47.46
560.66	47.48
560.856	47.57
561.052	47.57
561.247	47.62
561.443	47.63
561.639	47.59
561.835	47.58
562.031	47.61
562.227	47.5
562.423	47.48
562.619	47.53
562.815	47.61
563.01	47.68
563.206	47.64
563.402	47.49
563.598	47.4
563.793	47.41
563.989	47.44
564.185	47.45
564.381	47.47
564.576	47.3
564.772	47.41
564.968	47.55
565.163	47.69
565.359	47.94
565.555	48.16
565.75	48.34
565.946	48.55
566.141	48.58
566.337	48.56
566.532	48.68
566.728	48.81
566.923	48.88
567.119	48.93
567.314	48.77
567.51	48.79
567.705	48.89
567.901	48.78
568.096	48.47
568.292	48.41
568.487	48.48
568.682	48.41
568.878	48.64
569.073	48.6
569.268	48.82
569.464	48.89
569.659	48.82
569.854	48.75
570.05	48.89
570.245	49.21
570.44	49.35
570.635	49.36
570.831	49.41
571.026	49.19
571.221	49.07
571.416	48.9
571.611	48.92
571.806	48.62
572.002	48.73
572.197	48.89
572.392	48.98
572.587	48.97
572.782	49.13
572.977	49.22
573.172	49.25
573.367	49.51
573.562	49.33
573.757	49.22
573.952	49.52
574.147	49.49
574.342	49.44
574.537	49.32
574.732	49.52
574.927	49.39
575.121	49.23
575.316	49.38
575.511	49.27
575.706	49.39
575.901	49.66
576.096	49.76
576.29	49.83
576.485	49.79
576.68	49.7
576.875	49.56
577.069	49.46
577.264	49.71
577.459	49.79
577.654	49.76
577.848	49.86
578.043	49.75
578.238	49.88
578.432	49.77
578.627	49.84
578.821	50
579.016	50.12
579.21	50.3
579.405	50.4
579.6	50.28
579.794	50.42
579.989	50.45
580.183	50.57
580.378	50.47
580.572	50.35
580.766	50.66
580.961	50.71
581.155	50.62
581.35	50.63
581.544	50.52
581.738	50.8
581.933	50.96
582.127	50.74
582.321	50.82
582.516	50.65
582.71	50.6
582.904	50.22
583.099	49.93
583.293	50.05
583.487	49.79
583.681	49.59
583.875	49.32
584.07	49.16
584.264	49.41
584.458	49.28
584.652	49.52
584.846	49.61
585.04	49.64
585.234	49.81
585.428	49.72
585.623	49.96
585.817	50.12
586.011	49.92
586.205	49.93
586.399	49.85
586.593	49.79
586.787	49.85
586.981	50.06
587.174	49.99
587.368	50.27
587.562	50.15
587.756	50.18
587.95	50.07
588.144	50.54
588.338	50.77
588.532	50.58
588.725	50.45
588.919	50.37
589.113	50.48
589.307	50.71
589.501	50.62
589.694	50.62
589.888	50.74
590.082	50.82
590.275	50.58
590.469	50.62
590.663	50.76
590.856	51
591.05	51.2
591.244	51.25
591.437	51.26
591.631	50.95
591.824	51.08
592.018	50.9
592.212	51.06
592.405	51.4
592.599	51.26
592.792	51.36
592.986	51.47
593.179	51.2
593.372	51.1
593.566	51.16
593.759	51.38
593.953	51.52
594.146	51.92
594.339	51.9
594.533	51.96
594.726	51.92
594.92	52.06
595.113	51.89
595.306	52.16
595.499	51.99
595.693	52.07
595.886	52.2
596.079	52.22
596.272	51.97
596.466	51.85
596.659	51.72
596.852	51.97
597.045	51.88
597.238	52.1
597.431	51.74
597.624	51.66
597.818	51.49
598.011	51.34
598.204	51.46
598.397	51.67
598.59	51.77
598.783	51.56
598.976	51.47
599.169	51.59
599.362	51.31
599.555	51.46
599.748	51.48
599.941	51.21
600.134	51.31
600.326	51.07
600.519	50.73
600.712	50.83
600.905	50.75
601.098	50.61
601.291	50.32
601.483	50.48
601.676	50.45
601.869	50.97
602.062	51.33
602.255	51.65
602.447	51.86
602.64	51.9
602.833	52.01
603.025	52.13
603.218	52.01
603.411	52.13
603.603	52.03
603.796	52.29
603.989	52.17
604.181	52.18
604.374	52
604.566	51.85
604.759	51.92
604.951	51.95
605.144	51.94
605.336	52.21
605.529	52.18
605.721	52.31
605.914	52.25
606.106	52.23
606.299	52.14
606.491	52.07
606.683	52.06
606.876	51.86
607.068	51.93
607.26	52.09
607.453	51.92
607.645	52.08
607.837	51.82
608.03	51.94
608.222	52.18
608.414	52.09
608.606	52.13
608.799	52.11
608.991	52.24
609.183	51.84
609.375	51.8
609.567	51.75
609.759	51.53
609.952	51.85
610.144	51.78
610.336	51.6
610.528	51.9
610.72	51.96
610.912	51.93
611.104	51.65
611.296	51.79
611.488	51.83
611.68	51.69
611.872	51.73
612.064	51.58
612.256	51.39
612.448	51.27
612.64	51.09
612.832	50.89
613.023	51.13
613.215	51.47
613.407	51.85
613.599	51.86
613.791	51.84
613.983	52
614.174	52.31
614.366	52.4
614.558	52.4
614.75	52.42
614.941	52.53
615.133	52.29
615.325	52.69
615.516	52.19
615.708	52.42
615.9	52.21
616.091	52.25
616.283	51.71
616.475	51.82
616.666	51.86
616.858	51.68
617.049	51.66
617.241	51.98
617.432	51.71
617.624	52.18
617.815	51.86
618.007	52.43
618.198	52.52
618.39	52.45
618.581	52.56
618.773	52.83
618.964	53.23
619.155	53.11
619.347	52.79
619.538	52.84
619.729	52.51
619.921	52.26
620.112	52.2
620.303	51.99
620.494	52.33
620.686	52.48
620.877	52.15
621.068	52.28
621.259	52.44
621.451	52.86
621.642	53.01
621.833	53.21
622.024	53.63
622.215	53.8
622.406	54
622.597	54.01
622.788	53.57
622.98	54.02
623.171	53.69
623.362	53.83
623.553	53.48
623.744	53.23
623.935	53.02
624.126	52.82
624.317	52.8
624.508	52.9
624.698	52.88
624.889	53.37
625.08	52.98
625.271	52.88
625.462	52.84
625.653	52.92
625.844	52.66
626.034	53.06
626.225	53.26
626.416	53.31
626.607	53.44
626.798	53.71
626.988	53.41
627.179	53.66
627.37	53.76
627.56	53.98
627.751	53.91
627.942	54.08
628.132	53.6
628.323	53.6
628.514	53.56
628.704	53.45
628.895	53.17
629.085	53.31
629.276	53.08
629.466	53.39
629.657	53.33
629.847	53.51
630.038	53.56
630.228	54.07
630.419	53.72
630.609	53.46
630.8	53.21
630.99	53.14
631.181	53.4
631.371	53.62
631.561	53.57
631.752	53.37
631.942	53.16
632.132	53.05
632.323	52.64
632.513	52.91
632.703	53.05
632.893	53.18
633.084	53.42
633.274	53.08
633.464	52.78
633.654	52
633.844	52.04
634.034	52.45
634.225	52.66
634.415	53.09
634.605	53.3
634.795	53.37
634.985	53.2
635.175	53.05
635.365	52.97
635.555	53.1
635.745	53.7
635.935	53.73
636.125	53.5
636.315	53.4
636.505	53.35
636.695	53.2
636.885	53.08
637.075	53.38
637.265	53.7
637.455	53.93
637.644	54.03
637.834	53.63
638.024	53.77
638.214	53.44
638.404	53.31
638.593	52.88
638.783	52.9
638.973	53.1
639.163	52.94
639.352	52.49
639.542	52.17
639.732	52.32
639.921	52.59
640.111	52.48
640.301	52.68
640.49	53.27
640.68	53.41
640.87	53.43
641.059	53.14
641.249	53.06
641.438	53.31
641.628	53.61
641.817	53.26
642.007	53.36
642.196	53.56
642.386	53.54
642.575	53.13
642.764	53.36
642.954	53.57
643.143	53.83
643.333	53.84
643.522	53.79
643.711	53.4
643.901	53.52
644.09	53.76
644.279	53.71
644.469	53.59
644.658	53.48
644.847	53.43
645.036	53.25
645.226	53.13
645.415	53.01
645.604	53.45
645.793	53.76
645.982	53.92
646.171	53.83
646.361	54.03
646.55	54.24
646.739	54.18
646.928	54.09
647.117	53.37
647.306	53.78
647.495	54.14
647.684	54.02
647.873	54.39
648.062	54.24
648.251	54.34
648.44	53.86
648.629	54.45
648.818	54.98
649.007	54.89
649.196	55.23
649.384	54.7
649.573	54.55
649.762	54.18
649.951	53.5
650.14	53.73
650.328	52.88
650.517	52.6
650.706	52.44
650.895	52.46
651.083	52.29
651.272	52.35
651.461	52.76
651.65	52.47
651.838	52.57
652.027	53.26
652.216	53.06
652.404	53.52
652.593	53.95
652.781	53.33
652.97	53.6
653.158	54
653.347	54.14
653.535	53.94
653.724	54.37
653.912	54.17
654.101	53.8
654.289	53.85
654.478	54.05
654.666	54.01
654.855	54.18
655.043	53.63
655.231	53.25
655.42	53.17
655.608	52.98
655.796	52.63
655.985	52.72
656.173	52.86
656.361	52.98
656.55	52.58
656.738	52.43
656.926	52.28
657.114	52.17
657.302	52.3
657.491	51.93
657.679	52.07
657.867	52.29
658.055	51.85
658.243	51.79
658.431	52.07
658.619	52.41
658.807	52.45
658.996	52.88
659.184	53.07
659.372	53.05
659.56	53.8
659.748	53.81
659.936	53.79
660.124	54.11
660.311	54.01
660.499	53.56
660.687	53.59
660.875	53.91
661.063	53.72
661.251	53.6
661.439	53.68
661.627	53.31
661.814	53
662.002	53.43
662.19	53.46
662.378	53.91
662.565	53.92
662.753	53.63
662.941	53.62
663.129	54.34
663.316	54.69
663.504	54.8
663.692	55
663.879	55.44
664.067	54.94
664.254	55.43
664.442	54.88
664.63	55.02
664.817	55.48
665.005	55.49
665.192	54.97
665.38	54.76
665.567	54.46
665.755	53.98
665.942	54.28
666.13	54.37
666.317	54.1
666.504	54.67
666.692	54.65
666.879	54.8
667.067	54.55
667.254	54.24
667.441	54.18
667.629	54.48
667.816	54.74
668.003	54.11
668.19	53.94
668.378	54
668.565	53.72
668.752	53.52
668.939	53.4
669.127	53.07
669.314	53.11
669.501	53.05
669.688	53.18
669.875	52.91
670.062	53.33
670.249	53.83
670.436	53.79
670.623	53.81
670.81	54.13
670.997	53.87
671.184	53.91
671.371	53.84
671.558	54.12
671.745	54.27
671.932	54.56
672.119	54.17
672.306	54.22
672.493	54.52
672.68	54.87
672.867	54.5
673.054	54.84
673.24	54.97
673.427	55.1
673.614	54.43
673.801	53.95
673.988	54.04
674.174	54.51
674.361	53.88
674.548	54.2
674.734	53.6
674.921	54.21
675.108	54.53
675.294	54.64
675.481	55.08
675.668	55.76
675.854	56.43
676.041	56.43
676.227	56.25
676.414	56.73
676.601	56.63
676.787	56.44
676.974	56.73
677.16	56.3
677.347	56.68
677.533	56.11
677.719	56.05
677.906	55.72
678.092	55.53
678.279	55.68
678.465	55.92
678.651	55.09
678.838	55.16
679.024	54.66
679.21	54.67
679.397	54.34
679.583	54.42
679.769	53.86
679.955	53.82
680.142	53.81
680.328	53.52
680.514	52.75
680.7	52.79
680.886	52.7
681.073	52.39
681.259	52.35
681.445	52.53
681.631	52.73
681.817	52.94
682.003	52.75
682.189	52.63
682.375	52.87
682.561	53.18
682.747	53.38
682.933	53.87
683.119	54.19
683.305	54.28
683.491	54.36
683.677	54
683.863	54.84
684.049	54.71
684.235	55
684.42	54.77
684.606	54.92
684.792	54.46
684.978	54.56
685.164	54.62
685.349	54.24
685.535	53.83
685.721	54.08
685.907	53.69
686.092	54.41
686.278	54.76
686.464	54.62
686.649	54.57
686.835	54.98
687.021	54.92
687.206	55.43
687.392	55.55
687.577	55.37
687.763	55.09
687.948	54.8
688.134	54.35
688.319	54.13
688.505	54.11
688.69	54.26
688.876	54.6
689.061	53.8
689.247	53.12
689.432	53.5
689.618	54.36
689.803	54.36
689.988	54.75
690.174	54.47
690.359	54.47
690.544	54.45
690.73	54.7
690.915	54.1
691.1	55
691.285	55.35
691.471	54.73
691.656	54.11
691.841	54.58
692.026	54.11
692.211	53.86
692.396	53.71
692.582	53.81
692.767	53.58
692.952	53.38
693.137	53.68
693.322	53.57
693.507	54.32
693.692	54.19
693.877	54.2
694.062	54.65
694.247	55.48
694.432	55.87
694.617	56.49
694.802	55.77
694.987	56.54
695.172	55.7
695.357	56.39
695.541	56.38
695.726	56.02
695.911	55.58
696.096	54.92
696.281	54.75
696.466	54.39
696.65	54.21
696.835	54.91
697.02	54.87
697.204	55
697.389	54.23
697.574	54.23
697.759	54.64
697.943	54.68
698.128	54.71
698.312	54.47
698.497	54.59
698.682	54.97
698.866	55.02
699.051	54.85
699.235	54.88
699.42	54.98
699.604	54.57
699.789	54.43
699.973	54.23
700.158	54.58
700.342	54.46
700.527	54.4
700.711	53.82
700.895	53.46
701.08	53.33
701.264	53.48
701.448	53.4
701.633	53.4
701.817	53.78
702.001	54.58
702.186	54.05
702.37	54.87
702.554	54.68
702.738	54.77
702.923	55
703.107	54.33
703.291	53.53
703.475	53.79
703.659	53.79
703.843	53.42
704.027	53.29
704.212	53.87
704.396	53.61
704.58	54.26
704.764	53.76
704.948	53.3
705.132	53.36
705.316	54.25
705.5	53.85
705.684	53.62
705.868	53.86
706.052	53.26
706.235	52.68
706.419	52
706.603	51.77
706.787	52.82
706.971	53.12
707.155	53.28
707.339	53.13
707.522	52.32
707.706	52.1
707.89	52.45
708.074	52.55
708.257	52.84
708.441	53.06
708.625	52.7
708.808	52.11
708.992	51.56
709.176	52.08
709.359	51.83
709.543	53.19
709.727	54
709.91	53.43
710.094	53.54
710.277	53.82
710.461	53.93
710.644	53.54
710.828	53.6
711.011	54.34
711.195	54.65
711.378	55.08
711.562	54
711.745	54.01
711.928	54.68
712.112	54.21
712.295	53.31
712.478	53.43
712.662	53.89
712.845	53.63
713.028	53.28
713.212	53.02
713.395	52.35
713.578	53.24
713.761	52.97
713.945	52.44
714.128	53.03
714.311	53.57
714.494	54.02
714.677	54.41
714.86	54.83
715.043	54.71
715.227	54.98
715.41	55.26
715.593	55.37
715.776	55.42
715.959	55.68
716.142	55.45
716.325	54.51
716.508	53.54
716.691	53.12
716.874	53.36
717.057	53.9
717.239	53.24
717.422	53.63
717.605	53.92
717.788	53.91
717.971	54.25
718.154	54.94
718.337	55.75
718.519	56.38
718.702	56.14
718.885	55.31
719.068	55.18
719.25	57.45
719.433	57.26
719.616	56.72
719.798	56.4
719.981	56.01
720.164	55.53
720.346	56.07
720.529	55.98
720.712	56.47
720.894	57.02
721.077	57.02
721.259	54.71
721.442	53.98
721.624	54.23
721.807	54.74
721.989	54.86
722.172	53.87
722.354	53.72
722.537	53.62
722.719	53.67
722.901	52.61
723.084	53.07
723.266	53.08
723.448	54.3
723.631	54.38
723.813	55.16
723.995	55.2
724.178	56.05
724.36	55.82
724.542	56.91
724.724	56.23
724.907	57.14
725.089	55.99
725.271	56.07
725.453	55.78
725.635	54.96
725.817	53.62
725.999	52.36
726.181	52.54
726.364	52.67
726.546	50.98
726.728	51.76
726.91	52.03
727.092	53
727.274	54.14
727.456	53.77
727.638	54.25
727.819	54.69
728.001	56.22
728.183	57.09
728.365	57.53
728.547	58.39
728.729	57.41
728.911	57.52
729.093	57.27
729.274	56.9
729.456	57.09
729.638	56.74
729.82	56.7
730.001	55.41
730.183	54.22
730.365	52.96
730.546	52.94
730.728	52.99
730.91	52.54
731.091	52.32
731.273	51.34
731.455	50.58
731.636	51.08
731.818	51.43
731.999	52.2
732.181	52.56
732.362	53.2
732.544	53.5
732.725	53.5
732.907	53.27
733.088	53.08
733.27	54.15
733.451	54.88
733.633	53.95
733.814	53.19
733.995	52.96
734.177	53.54
734.358	53.18
734.539	52.59
734.721	52.23
734.902	53.06
735.083	53.5
735.264	53.68
735.446	53.16
735.627	53.63
735.808	53.47
735.989	53.25
736.17	51.92
736.351	52.33
736.533	52.52
736.714	53.09
736.895	52.01
737.076	50.87
737.257	50.59
737.438	50.81
737.619	50.43
737.8	50.59
737.981	51.52
738.162	51.9
738.343	52.92
738.524	52.04
738.705	51.81
738.886	50.98
739.067	51.46
739.247	50.35
739.428	49.68
739.609	50.25
739.79	50
739.971	49.01
740.151	49.1
740.332	47.87
740.513	48.48
740.694	48.97
740.874	49.16
741.055	50.11
741.236	50.07
741.417	51.02
741.597	51.24
741.778	51.61
741.958	51.8
742.139	52.17
742.32	50.73
742.5	49.99
742.681	50.59
742.861	51.62
743.042	50.67
743.222	52.17
743.403	51.73
743.583	50.15
743.764	49.67
743.944	49.38
744.124	50.61
744.305	53.09
744.485	53.8
744.666	54.29
744.846	54.21
745.026	53.68
745.207	53.47
745.387	54.93
745.567	55.61
745.747	56.18
745.928	56.9
746.108	54.95
746.288	55.01
746.468	54.76
746.648	53.54
746.829	53.95
747.009	54.62
747.189	55.04
747.369	54.88
747.549	54.6
747.729	55.75
747.909	54.7
748.089	54.61
748.269	55
748.449	55.89
748.629	55.57
748.809	55.65
748.989	55.39
749.169	55.31
749.349	55.37
749.529	55.85
749.709	56.31
749.889	56.77
750.068	56.64
750.248	54.42
750.428	54.48
750.608	55.03
750.788	54.72
750.967	54.15
751.147	52.13
751.327	51.89
751.507	51.43
751.686	50.01
751.866	50.13
752.046	50.37
752.225	52.42
752.405	52.03
752.585	51.76
752.764	52.68
752.944	52.79
753.123	53.87
753.303	53.09
753.482	54.68
753.662	54.39
753.841	54.11
754.021	53.72
754.2	52.33
754.38	52.44
754.559	53.71
754.739	52.46
754.918	52.53
755.097	53.03
755.277	53.84
755.456	53.56
755.635	54.27
755.815	54.75
755.994	54.28
756.173	55.34
756.352	55.41
756.532	54.33
756.711	56.09
756.89	57.76
757.069	57.62
757.248	56.81
757.427	56.72
757.607	56.6
757.786	56.08
757.965	57.18
758.144	56.42
758.323	56.01
758.502	55.92
758.681	54.54
758.86	52.82
759.039	52.17
759.218	52.07
759.397	50.59
759.576	50
759.755	50.69
759.934	50.1
760.113	49.79
760.291	50.04
760.47	50.41
760.649	51.79
760.828	52.11
761.007	53.26
761.186	52.88
761.364	53.5
761.543	53.84
761.722	53.55
761.901	54.91
762.079	55.86
762.258	56.27
762.437	54.96
762.615	53.91
762.794	53.67
762.972	53.11
763.151	53.34
763.33	53.51
763.508	51.91
763.687	52.14
763.865	52.15
764.044	51.68
764.222	51.66
764.401	52.26
764.579	51.91
764.758	51.87
764.936	52.21
765.114	52.05
765.293	52.31
765.471	53.5
765.65	54.08
765.828	52.45
766.006	52.21
766.184	51.83
766.363	52.73
766.541	52.59
766.719	54.57
766.898	54.8
767.076	54.71
767.254	54.14
767.432	55.22
767.61	53.2
767.788	54.13
767.967	53.14
768.145	53.18
768.323	52.02
768.501	52.93
768.679	49.52
768.857	48.07
769.035	49.57
769.213	51.4
769.391	50.07
769.569	51.34
769.747	52.26
769.925	54.84
770.103	55.7
770.281	56.86
770.459	56.44
770.636	60.27
770.814	62.02
770.992	60.38
771.17	59.13
771.348	59.88
771.525	59.76
771.703	58.85
771.881	56.67
772.059	54.73
772.236	54.28
772.414	55.59
772.592	52.56
772.769	49.05
772.947	50.36
773.125	51.65
773.302	52.98
773.48	54.1
773.657	55.01
773.835	54.49
774.013	53.26
774.19	51.75
774.368	50.56
774.545	51.95
774.723	56.28
774.9	56.75
775.077	53.7
775.255	52.74
775.432	49.91
775.61	48.73
775.787	52.24
775.964	52.47
776.142	53.39
776.319	52.13
776.496	51.99
776.674	52.37
776.851	50.64
777.028	52.46
777.205	51.8
777.382	54.44
777.56	53.49
777.737	51.95
777.914	55.63
778.091	53.91
778.268	54.69
778.445	55.23
778.622	52.94
778.8	53.39
778.977	54.71
779.154	55.26
779.331	53.06
779.508	53.53
779.685	52.57
779.862	50.74
780.038	54
780.215	53.98
780.392	53.98
780.569	53.29
780.746	53.28
780.923	52.72
781.1	52.28
781.277	53.57
781.453	55.37
781.63	54.92
781.807	53.98
781.984	52.79
782.16	52.14
782.337	52.28
782.514	52.44
782.691	52.58
782.867	50.03
783.044	53.54
783.221	54.33
783.397	53.54
783.574	54.92
783.75	57.54
783.927	56.55
784.103	59.41
784.28	59.43
784.456	59.98
784.633	59.52
784.809	61.51
784.986	59.25
785.162	58.32
785.339	57.76
785.515	60.23
785.692	57.04
785.868	56.69
786.044	54.68
786.221	53.51
786.397	55.91
786.573	55.98
786.749	54.73
786.926	53.72
787.102	52.87
787.278	52.19
787.454	53.15
787.631	54.07
787.807	54.49
787.983	54.75
788.159	54.13
788.335	51.98
788.511	51.8
788.687	52.77
788.863	53.11
789.039	53.78
789.216	55.81
789.392	54.23
789.568	53.29
789.744	56.19
789.919	57.28
790.095	56.04
790.271	56.16
790.447	53.37
790.623	54.77
790.799	52.98
790.975	51.39
791.151	50.99
791.327	51.86
791.502	54.81
791.678	53.49
791.854	48.47
792.03	49.12
792.205	50.96
792.381	51.65
792.557	50.37
792.733	53.22
792.908	53.55
793.084	53.78
793.259	51.48
793.435	50.16
793.611	46.91
793.786	48.68
793.962	48.89
794.137	47.49
794.313	50.75
794.488	48.92
794.664	47.39
794.839	50.88
795.015	50.21
795.19	50.09
795.366	50.17
795.541	52.23
795.716	54.38
795.892	53.76
796.067	52
796.242	50.61
796.418	52.65
796.593	53.39
796.768	52.41
796.944	54.24
797.119	57.17
797.294	55.88
797.469	53.81
797.644	54.1
797.82	57.09
797.995	59.54
798.17	58.61
798.345	57.29
798.52	57.87
798.695	55.08
798.87	50.68
799.045	47.45
799.22	47.54
799.395	49.9
799.57	48.32
799.745	45.63
799.92	46.16
800.095	50.13
800.27	50.3
800.445	48.39
800.62	50.3
800.795	49.12
800.97	50.05
801.145	49.78
801.319	46.22
801.494	47.13
801.669	46.81
801.844	45.09
802.018	44.55
802.193	42.16
802.368	40.85
802.543	36.74
802.717	44.31
802.892	42.65
803.067	44.49
803.241	46.48
803.416	46.69
803.59	50.73
803.765	50.07
803.94	48.49
804.114	53.13
804.289	54.41
804.463	55.92
804.638	51.57
804.812	52.84
804.986	52.66
805.161	54.96
805.335	54.62
805.51	54.05
805.684	52.18
805.858	51.16
806.033	48.73
806.207	51.81
806.381	51.59
806.556	54.02
806.73	52.94
806.904	52.08
807.078	52.01
807.253	50.11
807.427	48.26
807.601	52.44
807.775	56.03
807.949	55.99
808.123	55.26
808.298	58.97
808.472	57.98
808.646	62.6
808.82	66.57
808.994	66.43
809.168	66.74
809.342	66.85
809.516	68.77
809.69	70.37
809.864	68.31
810.038	67.96
810.212	66.05
810.385	66.04
810.559	58.56
810.733	54.86
810.907	51.2
811.081	51.06
811.255	53.8
811.428	49.84
811.602	43.93
811.776	47.29
811.95	46.78
812.123	50.45
812.297	49.22
812.471	57.08
812.644	61.88
812.818	65.42
812.992	66.97
813.165	67.7
813.339	71.73
813.512	67.79
813.686	67.58
813.86	66.91
814.033	63.27
814.207	67.19
814.38	66.7
814.554	63.9
814.727	58.69
814.9	61.11
815.074	61.31
815.247	61.2
815.421	64.48
815.594	70.16
815.767	72.74
815.941	73.01
816.114	70.42
816.287	68.57
816.46	66.46
816.634	70.49
816.807	72.01
816.98	71.95
817.153	70.49
817.327	69
817.5	62.16
817.673	58.8
817.846	57.23
818.019	58.24
818.192	54.68
818.365	58.04
818.538	53.85
818.711	50.12
818.884	48.84
819.057	45.77
819.23	50.3
819.403	51.59
819.576	52.95
819.749	57.77
819.922	59.96
820.095	61.23
820.268	62.36
820.441	64.83
820.614	66.4
820.786	65.44
820.959	65.33
821.132	63.62
821.305	63.19
821.477	62.67
821.65	59.17
821.823	56.82
821.996	54.53
822.168	52.63
822.341	52.51
822.514	52.01
822.686	51.87
822.859	51.47
823.031	50.71
823.204	50.08
823.376	49.31
823.549	49.53
823.722	49.08
823.894	49.92
824.067	50.71
824.239	51.14
824.411	51.53
824.584	51.99
824.756	52.19
824.929	52.82
825.101	52.66
825.273	52.79
825.446	51.75
825.618	53.32
825.79	52.41
825.963	51.59
826.135	51.69
826.307	50.81
826.479	49.69
826.652	49.58
826.824	50.53
826.996	50.09
827.168	50
827.34	50.46
827.512	49.3
827.684	52.65
827.856	52.23
828.029	50.98
828.201	51.94
828.373	53.45
828.545	52.17
828.717	51.1
828.889	52.4
829.061	52.58
829.232	52.82
829.404	54.93
829.576	53.44
829.748	55.43
829.92	54.79
830.092	54.88
830.264	52.31
830.436	55.5
830.607	52.1
830.779	49.01
830.951	52.7
831.123	54.4
831.294	54.46
831.466	52.51
831.638	46.25
831.809	47.27
831.981	45.89
832.153	47.16
832.324	44.07
832.496	49.47
832.667	52.87
832.839	52.05
833.011	47.92
833.182	43.87
833.354	44.23
833.525	46.43
833.697	46.59
833.868	46.87
834.039	45.01
834.211	45.86
834.382	46.16
834.554	45.26
834.725	41.05
834.896	42.95
835.068	46.64
835.239	47.03
835.41	49.33
835.581	49.08
835.753	48.06
835.924	52.12
836.095	52.38
836.266	51.51
836.438	51.49
836.609	56.12
836.78	58.05
836.951	56.68
837.122	55.68
837.293	55.43
837.464	60.52
837.635	62.85
837.806	59.82
837.977	58.16
838.148	56.84
838.319	58.86
838.49	61.11
838.661	58.5
838.832	56.97
839.003	58.22
839.174	58.73
839.345	56.68
839.516	56.05
839.687	57.12
839.857	59.91
840.028	63.47
840.199	59.29
840.37	60.31
840.54	61.56
840.711	62.44
840.882	65.68
841.053	61.74
841.223	57.45
841.394	59.71
841.564	57.03
841.735	56.65
841.906	52
842.076	59.09
842.247	58.12
842.417	59.34
842.588	64.19
842.758	60.86
842.929	68.63
843.099	73.34
843.27	72.36
843.44	82.11
843.611	80.06
843.781	83.45
843.951	86.33
844.122	91.31
844.292	89.18
844.462	92.58
844.633	105.44
844.803	95.23
844.973	100.85
845.144	99.22
845.314	102.27
845.484	115.82
845.654	124.89
845.824	115.52
845.995	90.78
846.165	88.36
846.335	62.08
846.505	61.07
846.675	64.09
846.845	54.58
847.015	53.28
847.185	44.43
847.355	37.31
847.525	28.02
847.695	33.34
847.865	34.56
848.035	34.89
848.205	29.63
848.375	32.76
848.545	34.34
848.715	41.11
848.884	42.11
849.054	39.27
849.224	39.25
849.394	49.6
849.564	46.21
849.733	48.32
849.903	52.97
850.073	69.93
850.243	74.44
850.412	70.77
850.582	61.58
850.752	62.48
850.921	62.93
851.091	61.53
851.26	62.61
851.43	67.36
851.599	73.44
851.769	80.51
851.939	73.96
852.108	56.16
852.278	69.99
852.447	91.29
852.616	92.29
852.786	109.7
852.955	98.67
853.125	113.52
853.294	113.02
853.463	106.29
853.633	97.56
853.802	94.99
853.971	100.51
854.141	90.34
854.31	70.47
854.479	68.64
854.648	62.52
854.818	66.28
854.987	72.1
855.156	66.67
855.325	81.25
855.494	70.66
855.663	69.35
855.832	72.69
856.001	71.35
856.171	77.98
856.34	79.57
856.509	77.01
856.678	80.38
856.847	68.13
857.016	75.5
857.185	53.84
857.353	55.91
857.522	54.36
857.691	57.77
857.86	61.46
858.029	70.62
858.198	74.03
858.367	81.27
858.535	80.49
858.704	80.84
858.873	65.87
859.042	71.21
859.21	72.62
859.379	78.32
859.548	72.08
859.717	59.1
859.885	46.67
860.054	41.91
860.222	44.26
860.391	46.85
860.56	48.79
860.728	62.54
860.897	62.31
861.065	66.62
861.234	61.83
861.402	78.21
861.571	86.06
861.739	86.81
861.908	81.79
862.076	75.62
862.244	85.96
862.413	86.48
862.581	96.54
862.749	109.06
862.918	102
863.086	87.56
863.254	81.23
863.423	78.69
863.591	74.44
863.759	77.32
863.927	75.54
864.096	75.37
864.264	79.66
864.432	67.22
864.6	60.06
864.768	60.44
864.936	60.68
865.104	50.22
865.272	50.93
865.44	58.45
865.608	65.73
865.776	81.44
865.944	71.31
866.112	74.43
866.28	69.13
866.448	70.31
866.616	69.42
866.784	96.5
866.952	108.83
867.12	91.67
867.288	85.05
867.455	84.12
867.623	66.76
867.791	70.37
867.959	81.65
868.127	94.54
868.294	75.39
868.462	66.78
868.63	62.23
868.797	65.97
868.965	94.79
869.133	84.92
869.3	80.04
869.468	75.69
869.636	86.14
869.803	74.02
869.971	82.2
870.138	92.07
870.306	109.76
870.473	114.21
870.641	113.89
870.808	81.44
870.975	100.79
871.143	79.51
871.31	86.72
871.478	74.76
871.645	76.56
871.812	60.12
871.98	74.78
872.147	82.3
872.314	68.76
872.482	62.64
872.649	82.07
872.816	84.25
872.983	89.04
873.15	82.35
873.318	108.89
873.485	112.28
873.652	129.61
873.819	104.37
873.986	106.46
874.153	153.55
874.32	120.43
874.487	89.54
874.654	98.82
874.821	108.03
874.988	116.99
875.155	101.32
875.322	99.42
875.489	96.95
875.656	108.03
875.823	95.56
875.99	91.07
876.157	90.5
876.324	98.63
876.49	92.72
876.657	89.01
876.824	95.73
876.991	84.99
877.157	90.85
877.324	91.27
877.491	94.07
877.658	97.51
877.824	86.48
877.991	81.71
878.157	82.29
878.324	78.97
878.491	74.07
878.657	73.38
878.824	72.42
878.99	67.84
879.157	64.95
879.323	58.96
879.49	63.05
879.656	72.16
879.823	77.11
879.989	80.57
880.156	84.88
880.322	82.41
880.488	72.17
880.655	86.88
880.821	88.78
880.987	92.2
881.154	82.08
881.32	71.3
881.486	66.44
881.652	65.23
881.819	59.2
881.985	55.27
882.151	60.15
882.317	60.69
882.483	55.79
882.649	51.51
882.816	50.59
882.982	50.43
883.148	50.98
883.314	49.98
883.48	50.52
883.646	51.08
883.812	52.87
883.978	55.19
884.144	55.06
884.31	58.57
884.476	58.91
884.642	60.49
884.807	62.9
884.973	63.1
885.139	66.61
885.305	68.47
885.471	68.97
885.637	71.22
885.802	67.97
885.968	69.68
886.134	65.11
886.3	65.89
886.465	65.95
886.631	64.17
886.797	60.69
886.962	58.11
887.128	58.72
887.293	62.07
887.459	61.74
887.625	58.74
887.79	59.39
887.956	69.79
888.121	72.42
888.287	71.36
888.452	75.25
888.618	86.47
888.783	88.65
